Latitude;Longitude;Elevation;Time;Name;
46.054773;11.133803;211.9;;Trento Gocciadoro;
46.045797;11.139156;273.1;;Villazzano;
45.965351;11.70095;215.5;;Primolano;
45.990351;11.669013;231.1;;Tezze;
46.015152;11.624928;264.1;;Grigno;
46.050771;11.514556;351.4;;Strigno;
46.051417;11.453404;394.7;;Borgo Centro;
46.051914;11.463004;399.3;;Borgo Est;
46.033058;11.394015;447.1;;Roncegno-Bagni Marter;
46.00583;11.304873;458.5;;Levico;
45.997201;11.264893;466.6;;Caldonazzo;
46.063196;11.23163;463.0;;Pergine;
46.00731;11.240407;459.8;;Calceranica;
46.039728;11.233847;451.8;;S.Cristoforo-Ischia;
46.066145;11.142218;337.5;;Povo-Mesiano;
46.046459;11.134649;199.1;;S.Bartolomeo;
46.05302;11.452077;384.0;1970-01-01T00:00:00Z;;
46.052847;11.45132;385.8;1970-01-01T00:00:00Z;;
46.052624;11.450366;384.0;1970-01-01T00:00:00Z;;
46.052427;11.449479;384.6;1970-01-01T00:00:00Z;;
46.052123;11.448147;384.2;1970-01-01T00:00:00Z;;
46.05181;11.446801;386.0;1970-01-01T00:00:00Z;;
46.051669;11.446226;386.9;1970-01-01T00:00:00Z;;
46.051661;11.446161;386.7;1970-01-01T00:00:00Z;;
46.051297;11.444672;385.7;1970-01-01T00:00:00Z;;
46.051141;11.443992;386.4;1970-01-01T00:00:00Z;;
46.051091;11.443796;386.6;1970-01-01T00:00:00Z;;
46.050968;11.443248;387.9;1970-01-01T00:00:00Z;;
46.050612;11.441797;389.9;1970-01-01T00:00:00Z;;
46.050447;11.441079;389.0;1970-01-01T00:00:00Z;;
46.05043;11.441014;388.8;1970-01-01T00:00:00Z;;
46.050298;11.440465;388.2;1970-01-01T00:00:00Z;;
46.050165;11.439955;389.8;1970-01-01T00:00:00Z;;
46.050108;11.439681;390.6;1970-01-01T00:00:00Z;;
46.050109;11.439642;390.6;1970-01-01T00:00:00Z;;
46.049949;11.439118;391.8;1970-01-01T00:00:00Z;;
46.04953;11.437665;388.7;1970-01-01T00:00:00Z;;
46.049354;11.43705;387.5;1970-01-01T00:00:00Z;;
46.049152;11.436407;386.8;1970-01-01T00:00:00Z;;
46.049043;11.436002;387.0;1970-01-01T00:00:00Z;;
46.048925;11.435648;387.5;1970-01-01T00:00:00Z;;
46.048559;11.434662;388.7;1970-01-01T00:00:00Z;;
46.048312;11.434005;388.5;1970-01-01T00:00:00Z;;
46.048081;11.433426;388.1;1970-01-01T00:00:00Z;;
46.047431;11.43182;392.4;1970-01-01T00:00:00Z;;
46.04696;11.430701;393.3;1970-01-01T00:00:00Z;;
46.046806;11.430345;392.5;1970-01-01T00:00:00Z;;
46.046618;11.429846;392.9;1970-01-01T00:00:00Z;;
46.046558;11.429701;392.9;1970-01-01T00:00:00Z;;
46.046558;11.429701;392.9;1970-01-01T00:00:00Z;;
46.046402;11.429837;392.2;1970-01-01T00:00:00Z;;
46.046232;11.429403;392.4;1970-01-01T00:00:00Z;;
46.046154;11.429231;392.8;1970-01-01T00:00:00Z;;
46.045999;11.429328;392.5;1970-01-01T00:00:00Z;;
46.045897;11.429064;393.0;1970-01-01T00:00:00Z;;
46.045657;11.428511;393.9;1970-01-01T00:00:00Z;;
46.045537;11.428196;394.5;1970-01-01T00:00:00Z;;
46.045228;11.427471;394.1;1970-01-01T00:00:00Z;;
46.045032;11.426972;394.4;1970-01-01T00:00:00Z;;
46.044398;11.425457;396.6;1970-01-01T00:00:00Z;;
46.044166;11.424943;396.9;1970-01-01T00:00:00Z;;
46.043821;11.42423;397.4;1970-01-01T00:00:00Z;;
46.043607;11.42373;400.4;1970-01-01T00:00:00Z;;
46.043264;11.422926;404.1;1970-01-01T00:00:00Z;;
46.042879;11.421992;406.1;1970-01-01T00:00:00Z;;
46.042666;11.421401;411.7;1970-01-01T00:00:00Z;;
46.042489;11.420863;415.7;1970-01-01T00:00:00Z;;
46.042379;11.420535;417.4;1970-01-01T00:00:00Z;;
46.042337;11.420391;417.7;1970-01-01T00:00:00Z;;
46.042201;11.419984;416.9;1970-01-01T00:00:00Z;;
46.041972;11.419742;422.5;1970-01-01T00:00:00Z;;
46.041836;11.419387;426.6;1970-01-01T00:00:00Z;;
46.04175;11.419215;429.7;1970-01-01T00:00:00Z;;
46.041549;11.418922;436.5;1970-01-01T00:00:00Z;;
46.04137;11.418436;436.7;1970-01-01T00:00:00Z;;
46.041259;11.418147;434.7;1970-01-01T00:00:00Z;;
46.041089;11.417674;436.4;1970-01-01T00:00:00Z;;
46.040926;11.417292;439.8;1970-01-01T00:00:00Z;;
46.040566;11.416449;443.6;1970-01-01T00:00:00Z;;
46.040497;11.416304;442.5;1970-01-01T00:00:00Z;;
46.040251;11.415608;441.6;1970-01-01T00:00:00Z;;
46.040021;11.415004;440.6;1970-01-01T00:00:00Z;;
46.039587;11.413809;427.5;1970-01-01T00:00:00Z;;
46.039426;11.413311;433.2;1970-01-01T00:00:00Z;;
46.039299;11.412918;436.0;1970-01-01T00:00:00Z;;
46.039229;11.41241;436.1;1970-01-01T00:00:00Z;;
46.039199;11.412151;435.4;1970-01-01T00:00:00Z;;
46.039161;11.411826;432.9;1970-01-01T00:00:00Z;;
46.039081;11.411331;428.5;1970-01-01T00:00:00Z;;
46.039007;11.411005;426.4;1970-01-01T00:00:00Z;;
46.038913;11.410768;425.1;1970-01-01T00:00:00Z;;
46.039052;11.410567;421.0;1970-01-01T00:00:00Z;;
46.039108;11.410492;419.7;1970-01-01T00:00:00Z;;
46.039056;11.410387;419.2;1970-01-01T00:00:00Z;;
46.038815;11.409859;416.4;1970-01-01T00:00:00Z;;
46.038609;11.409385;414.6;1970-01-01T00:00:00Z;;
46.038455;11.409017;414.4;1970-01-01T00:00:00Z;;
46.038294;11.408557;413.6;1970-01-01T00:00:00Z;;
46.038167;11.408164;412.6;1970-01-01T00:00:00Z;;
46.038023;11.407718;411.2;1970-01-01T00:00:00Z;;
46.037922;11.407404;410.2;1970-01-01T00:00:00Z;;
46.037728;11.406788;409.5;1970-01-01T00:00:00Z;;
46.037534;11.406146;410.1;1970-01-01T00:00:00Z;;
46.037247;11.405242;411.9;1970-01-01T00:00:00Z;;
46.036961;11.404299;413.7;1970-01-01T00:00:00Z;;
46.036641;11.403251;415.8;1970-01-01T00:00:00Z;;
46.03627;11.402072;414.0;1970-01-01T00:00:00Z;;
46.035807;11.400566;413.2;1970-01-01T00:00:00Z;;
46.035537;11.399675;412.4;1970-01-01T00:00:00Z;;
46.035251;11.398746;414.4;1970-01-01T00:00:00Z;;
46.034482;11.396322;417.6;1970-01-01T00:00:00Z;;
46.034331;11.39585;418.4;1970-01-01T00:00:00Z;;
46.034233;11.395546;418.7;1970-01-01T00:00:00Z;;
46.034245;11.395549;418.7;1970-01-01T00:00:00Z;;
46.033934;11.395354;420.1;1970-01-01T00:00:00Z;;
46.033748;11.395217;420.8;1970-01-01T00:00:00Z;;
46.033554;11.395041;422.8;1970-01-01T00:00:00Z;;
46.033457;11.39492;423.7;1970-01-01T00:00:00Z;;
46.033456;11.39491;423.7;1970-01-01T00:00:00Z;;
46.033276;11.394523;424.9;1970-01-01T00:00:00Z;;
46.033079;11.394197;425.2;1970-01-01T00:00:00Z;;
46.032928;11.393952;424.4;1970-01-01T00:00:00Z;;
46.032839;11.393878;424.6;1970-01-01T00:00:00Z;;
46.032771;11.393791;424.5;1970-01-01T00:00:00Z;;
46.032659;11.39354;424.6;1970-01-01T00:00:00Z;;
46.032345;11.393003;424.4;1970-01-01T00:00:00Z;;
46.032055;11.392591;423.2;1970-01-01T00:00:00Z;;
46.031581;11.392081;422.4;1970-01-01T00:00:00Z;;
46.031182;11.391644;423.4;1970-01-01T00:00:00Z;;
46.030932;11.391444;424.6;1970-01-01T00:00:00Z;;
46.03074;11.391338;425.4;1970-01-01T00:00:00Z;;
46.030604;11.39128;426.0;1970-01-01T00:00:00Z;;
46.03047;11.391168;426.2;1970-01-01T00:00:00Z;;
46.030287;11.390969;426.3;1970-01-01T00:00:00Z;;
46.030112;11.390709;425.8;1970-01-01T00:00:00Z;;
46.029985;11.390466;424.9;1970-01-01T00:00:00Z;;
46.029904;11.390309;425.0;1970-01-01T00:00:00Z;;
46.029676;11.389994;425.6;1970-01-01T00:00:00Z;;
46.029249;11.389462;427.8;1970-01-01T00:00:00Z;;
46.028966;11.389102;428.2;1970-01-01T00:00:00Z;;
46.028861;11.388814;427.0;1970-01-01T00:00:00Z;;
46.028715;11.388471;426.2;1970-01-01T00:00:00Z;;
46.02858;11.388051;425.2;1970-01-01T00:00:00Z;;
46.028589;11.388068;425.2;1970-01-01T00:00:00Z;;
46.028546;11.388002;425.1;1970-01-01T00:00:00Z;;
46.028281;11.387719;425.0;1970-01-01T00:00:00Z;;
46.028113;11.387595;425.1;1970-01-01T00:00:00Z;;
46.027934;11.387523;425.5;1970-01-01T00:00:00Z;;
46.027738;11.387463;425.9;1970-01-01T00:00:00Z;;
46.027371;11.387331;426.1;1970-01-01T00:00:00Z;;
46.027229;11.38726;426.0;1970-01-01T00:00:00Z;;
46.027024;11.387161;425.9;1970-01-01T00:00:00Z;;
46.02689;11.387103;426.1;1970-01-01T00:00:00Z;;
46.026675;11.387056;426.8;1970-01-01T00:00:00Z;;
46.026621;11.38704;427.0;1970-01-01T00:00:00Z;;
46.026542;11.386985;427.0;1970-01-01T00:00:00Z;;
46.02625;11.386714;426.8;1970-01-01T00:00:00Z;;
46.026074;11.386539;426.3;1970-01-01T00:00:00Z;;
46.025887;11.386414;425.8;1970-01-01T00:00:00Z;;
46.025569;11.386155;424.5;1970-01-01T00:00:00Z;;
46.025232;11.385882;424.7;1970-01-01T00:00:00Z;;
46.02486;11.385608;424.8;1970-01-01T00:00:00Z;;
46.024612;11.385442;424.2;1970-01-01T00:00:00Z;;
46.024513;11.385399;424.4;1970-01-01T00:00:00Z;;
46.024379;11.38538;425.1;1970-01-01T00:00:00Z;;
46.024216;11.385412;426.2;1970-01-01T00:00:00Z;;
46.024135;11.385434;426.9;1970-01-01T00:00:00Z;;
46.024009;11.385416;427.4;1970-01-01T00:00:00Z;;
46.023866;11.385397;428.2;1970-01-01T00:00:00Z;;
46.023732;11.385327;428.8;1970-01-01T00:00:00Z;;
46.023546;11.385189;431.0;1970-01-01T00:00:00Z;;
46.023405;11.385054;432.4;1970-01-01T00:00:00Z;;
46.023097;11.384718;435.1;1970-01-01T00:00:00Z;;
46.022948;11.384518;436.1;1970-01-01T00:00:00Z;;
46.022801;11.38424;436.6;1970-01-01T00:00:00Z;;
46.022525;11.38366;436.8;1970-01-01T00:00:00Z;;
46.022162;11.382908;434.9;1970-01-01T00:00:00Z;;
46.022041;11.38267;434.7;1970-01-01T00:00:00Z;;
46.021922;11.382342;433.9;1970-01-01T00:00:00Z;;
46.021786;11.381974;432.6;1970-01-01T00:00:00Z;;
46.021639;11.381696;432.2;1970-01-01T00:00:00Z;;
46.021543;11.381537;432.0;1970-01-01T00:00:00Z;;
46.021299;11.381165;431.5;1970-01-01T00:00:00Z;;
46.021107;11.38086;430.9;1970-01-01T00:00:00Z;;
46.020959;11.380647;430.5;1970-01-01T00:00:00Z;;
46.020836;11.380486;430.3;1970-01-01T00:00:00Z;;
46.020738;11.380405;430.7;1970-01-01T00:00:00Z;;
46.020384;11.380144;434.7;1970-01-01T00:00:00Z;;
46.020145;11.37994;438.5;1970-01-01T00:00:00Z;;
46.019979;11.379726;440.3;1970-01-01T00:00:00Z;;
46.019839;11.3795;441.3;1970-01-01T00:00:00Z;;
46.019755;11.379238;441.7;1970-01-01T00:00:00Z;;
46.019725;11.378953;441.1;1970-01-01T00:00:00Z;;
46.019739;11.378708;440.0;1970-01-01T00:00:00Z;;
46.019772;11.378425;438.9;1970-01-01T00:00:00Z;;
46.019759;11.378153;438.8;1970-01-01T00:00:00Z;;
46.019735;11.377571;436.6;1970-01-01T00:00:00Z;;
46.01969;11.377181;434.5;1970-01-01T00:00:00Z;;
46.019623;11.376894;432.8;1970-01-01T00:00:00Z;;
46.019527;11.376617;431.7;1970-01-01T00:00:00Z;;
46.019342;11.376213;431.5;1970-01-01T00:00:00Z;;
46.019189;11.375973;432.8;1970-01-01T00:00:00Z;;
46.01908;11.375798;433.3;1970-01-01T00:00:00Z;;
46.018966;11.375416;431.7;1970-01-01T00:00:00Z;;
46.018902;11.375233;431.7;1970-01-01T00:00:00Z;;
46.018806;11.375175;432.5;1970-01-01T00:00:00Z;;
46.018679;11.375179;435.6;1970-01-01T00:00:00Z;;
46.01854;11.375111;440.0;1970-01-01T00:00:00Z;;
46.018388;11.374927;443.7;1970-01-01T00:00:00Z;;
46.018319;11.374773;444.5;1970-01-01T00:00:00Z;;
46.018255;11.374573;444.6;1970-01-01T00:00:00Z;;
46.01819;11.374157;442.2;1970-01-01T00:00:00Z;;
46.018033;11.37379;441.9;1970-01-01T00:00:00Z;;
46.017857;11.373435;440.2;1970-01-01T00:00:00Z;;
46.017805;11.373189;437.3;1970-01-01T00:00:00Z;;
46.017645;11.372742;435.6;1970-01-01T00:00:00Z;;
46.017398;11.372323;437.3;1970-01-01T00:00:00Z;;
46.017107;11.371859;437.5;1970-01-01T00:00:00Z;;
46.01691;11.371522;441.2;1970-01-01T00:00:00Z;;
46.016768;11.371242;444.0;1970-01-01T00:00:00Z;;
46.016683;11.371126;446.3;1970-01-01T00:00:00Z;;
46.016574;11.370993;448.9;1970-01-01T00:00:00Z;;
46.016439;11.370851;452.0;1970-01-01T00:00:00Z;;
46.016354;11.370758;453.6;1970-01-01T00:00:00Z;;
46.0163;11.370614;453.3;1970-01-01T00:00:00Z;;
46.016212;11.370349;452.5;1970-01-01T00:00:00Z;;
46.01615;11.370111;451.3;1970-01-01T00:00:00Z;;
46.01608;11.369794;448.8;1970-01-01T00:00:00Z;;
46.016012;11.369626;448.6;1970-01-01T00:00:00Z;;
46.015939;11.36944;449.4;1970-01-01T00:00:00Z;;
46.015835;11.369212;451.3;1970-01-01T00:00:00Z;;
46.015758;11.368859;451.1;1970-01-01T00:00:00Z;;
46.015704;11.368576;451.0;1970-01-01T00:00:00Z;;
46.015618;11.368224;452.0;1970-01-01T00:00:00Z;;
46.01548;11.367793;453.3;1970-01-01T00:00:00Z;;
46.015396;11.367586;453.5;1970-01-01T00:00:00Z;;
46.015332;11.367435;454.4;1970-01-01T00:00:00Z;;
46.015286;11.36731;454.9;1970-01-01T00:00:00Z;;
46.015255;11.36717;454.6;1970-01-01T00:00:00Z;;
46.015254;11.367018;452.7;1970-01-01T00:00:00Z;;
46.015264;11.366909;450.7;1970-01-01T00:00:00Z;;
46.01526;11.366797;449.4;1970-01-01T00:00:00Z;;
46.015202;11.366581;448.8;1970-01-01T00:00:00Z;;
46.015155;11.366473;449.1;1970-01-01T00:00:00Z;;
46.015102;11.366304;448.5;1970-01-01T00:00:00Z;;
46.015056;11.366136;447.4;1970-01-01T00:00:00Z;;
46.015044;11.366045;446.1;1970-01-01T00:00:00Z;;
46.015064;11.365977;444.2;1970-01-01T00:00:00Z;;
46.015092;11.365948;442.8;1970-01-01T00:00:00Z;;
46.015109;11.365885;441.2;1970-01-01T00:00:00Z;;
46.015092;11.365829;440.8;1970-01-01T00:00:00Z;;
46.015068;11.36575;440.1;1970-01-01T00:00:00Z;;
46.015035;11.365685;439.7;1970-01-01T00:00:00Z;;
46.014978;11.365588;439.3;1970-01-01T00:00:00Z;;
46.014909;11.365491;438.9;1970-01-01T00:00:00Z;;
46.014853;11.365353;437.7;1970-01-01T00:00:00Z;;
46.01478;11.365229;437.4;1970-01-01T00:00:00Z;;
46.014715;11.365093;436.6;1970-01-01T00:00:00Z;;
46.014641;11.36495;435.4;1970-01-01T00:00:00Z;;
46.01442;11.364495;435.7;1970-01-01T00:00:00Z;;
46.014296;11.364152;437.7;1970-01-01T00:00:00Z;;
46.014164;11.363745;438.5;1970-01-01T00:00:00Z;;
46.014059;11.363423;437.7;1970-01-01T00:00:00Z;;
46.014015;11.363192;435.8;1970-01-01T00:00:00Z;;
46.013976;11.362992;433.8;1970-01-01T00:00:00Z;;
46.01393;11.362817;432.7;1970-01-01T00:00:00Z;;
46.013891;11.362675;432.1;1970-01-01T00:00:00Z;;
46.013877;11.362582;431.5;1970-01-01T00:00:00Z;;
46.013887;11.362485;430.7;1970-01-01T00:00:00Z;;
46.013927;11.362413;429.8;1970-01-01T00:00:00Z;;
46.014027;11.362332;428.5;1970-01-01T00:00:00Z;;
46.01485;11.361903;424.4;1970-01-01T00:00:00Z;;
46.015029;11.361821;424.0;1970-01-01T00:00:00Z;;
46.015029;11.361829;424.0;1970-01-01T00:00:00Z;;
46.014812;11.360873;423.7;1970-01-01T00:00:00Z;;
46.014669;11.360221;424.0;1970-01-01T00:00:00Z;;
46.014343;11.358219;424.7;1970-01-01T00:00:00Z;;
46.014273;11.357661;424.9;1970-01-01T00:00:00Z;;
46.014227;11.356728;425.2;1970-01-01T00:00:00Z;;
46.01422;11.355624;425.0;1970-01-01T00:00:00Z;;
46.014232;11.354907;424.7;1970-01-01T00:00:00Z;;
46.01428;11.354211;424.4;1970-01-01T00:00:00Z;;
46.014552;11.351324;424.9;1970-01-01T00:00:00Z;;
46.014577;11.350463;425.0;1970-01-01T00:00:00Z;;
46.014569;11.346157;426.0;1970-01-01T00:00:00Z;;
46.014547;11.344902;425.4;1970-01-01T00:00:00Z;;
46.014454;11.343732;426.8;1970-01-01T00:00:00Z;;
46.014452;11.343726;426.8;1970-01-01T00:00:00Z;;
46.014328;11.342766;426.3;1970-01-01T00:00:00Z;;
46.01427;11.342439;426.2;1970-01-01T00:00:00Z;;
46.014194;11.342005;426.0;1970-01-01T00:00:00Z;;
46.01411;11.341626;426.0;1970-01-01T00:00:00Z;;
46.014015;11.34121;426.0;1970-01-01T00:00:00Z;;
46.013887;11.34066;426.6;1970-01-01T00:00:00Z;;
46.013781;11.340204;426.7;1970-01-01T00:00:00Z;;
46.013643;11.339627;425.9;1970-01-01T00:00:00Z;;
46.013571;11.339342;425.8;1970-01-01T00:00:00Z;;
46.013574;11.339359;425.8;1970-01-01T00:00:00Z;;
46.013448;11.338832;426.0;1970-01-01T00:00:00Z;;
46.013187;11.33788;426.4;1970-01-01T00:00:00Z;;
46.012239;11.335439;427.2;1970-01-01T00:00:00Z;;
46.011466;11.333454;426.0;1970-01-01T00:00:00Z;;
46.010939;11.332292;427.3;1970-01-01T00:00:00Z;;
46.010474;11.331468;427.8;1970-01-01T00:00:00Z;;
46.010141;11.330998;428.4;1970-01-01T00:00:00Z;;
46.010302;11.33078;428.0;1970-01-01T00:00:00Z;;
46.009588;11.329756;427.8;1970-01-01T00:00:00Z;;
46.008436;11.327928;429.0;1970-01-01T00:00:00Z;;
46.007195;11.325971;428.8;1970-01-01T00:00:00Z;;
46.00624;11.32441;431.0;1970-01-01T00:00:00Z;;
46.005595;11.323242;432.5;1970-01-01T00:00:00Z;;
46.005087;11.322222;432.4;1970-01-01T00:00:00Z;;
46.004739;11.321463;431.6;1970-01-01T00:00:00Z;;
46.004141;11.319931;432.1;1970-01-01T00:00:00Z;;
46.003668;11.318586;433.1;1970-01-01T00:00:00Z;;
46.003249;11.317008;432.3;1970-01-01T00:00:00Z;;
46.002985;11.315771;433.1;1970-01-01T00:00:00Z;;
46.002741;11.314271;434.9;1970-01-01T00:00:00Z;;
46.002595;11.313124;435.2;1970-01-01T00:00:00Z;;
46.002629;11.312882;435.3;1970-01-01T00:00:00Z;;
46.002635;11.31279;435.4;1970-01-01T00:00:00Z;;
46.002565;11.312658;435.4;1970-01-01T00:00:00Z;;
46.00246;11.311454;436.0;1970-01-01T00:00:00Z;;
46.002481;11.310027;435.7;1970-01-01T00:00:00Z;;
46.002567;11.309439;436.7;1970-01-01T00:00:00Z;;
46.002342;11.309381;436.5;1970-01-01T00:00:00Z;;
46.002374;11.309098;436.7;1970-01-01T00:00:00Z;;
46.002453;11.308601;436.9;1970-01-01T00:00:00Z;;
46.00255;11.307754;436.2;1970-01-01T00:00:00Z;;
46.00263;11.307043;434.8;1970-01-01T00:00:00Z;;
46.002755;11.305946;436.9;1970-01-01T00:00:00Z;;
46.002919;11.304472;437.9;1970-01-01T00:00:00Z;;
46.002934;11.304315;437.7;1970-01-01T00:00:00Z;;
46.002921;11.304237;437.6;1970-01-01T00:00:00Z;;
46.002274;11.303431;437.4;1970-01-01T00:00:00Z;;
46.002238;11.303335;437.5;1970-01-01T00:00:00Z;;
46.00221;11.303235;437.6;1970-01-01T00:00:00Z;;
46.00221;11.303148;437.7;1970-01-01T00:00:00Z;;
46.002279;11.302716;438.4;1970-01-01T00:00:00Z;;
46.002346;11.302375;439.3;1970-01-01T00:00:00Z;;
46.002411;11.302157;440.0;1970-01-01T00:00:00Z;;
46.002479;11.301933;440.3;1970-01-01T00:00:00Z;;
46.002532;11.301748;440.4;1970-01-01T00:00:00Z;;
46.002612;11.301044;440.0;1970-01-01T00:00:00Z;;
46.002674;11.300452;440.0;1970-01-01T00:00:00Z;;
46.002713;11.299984;440.3;1970-01-01T00:00:00Z;;
46.00271;11.299717;440.4;1970-01-01T00:00:00Z;;
46.002698;11.299593;440.5;1970-01-01T00:00:00Z;;
46.002654;11.299531;440.7;1970-01-01T00:00:00Z;;
46.00249;11.299464;441.1;1970-01-01T00:00:00Z;;
46.002262;11.299397;441.6;1970-01-01T00:00:00Z;;
46.002222;11.299357;441.7;1970-01-01T00:00:00Z;;
46.002173;11.299319;441.8;1970-01-01T00:00:00Z;;
46.002192;11.299175;441.8;1970-01-01T00:00:00Z;;
46.002442;11.299238;441.3;1970-01-01T00:00:00Z;;
46.002504;11.299237;441.2;1970-01-01T00:00:00Z;;
46.00254;11.299229;441.1;1970-01-01T00:00:00Z;;
46.002571;11.29917;441.1;1970-01-01T00:00:00Z;;
46.002544;11.299041;441.3;1970-01-01T00:00:00Z;;
46.002494;11.29886;441.4;1970-01-01T00:00:00Z;;
46.002285;11.298386;442.5;1970-01-01T00:00:00Z;;
46.002196;11.298125;443.3;1970-01-01T00:00:00Z;;
46.002163;11.297994;443.6;1970-01-01T00:00:00Z;;
46.002163;11.297828;443.9;1970-01-01T00:00:00Z;;
46.002193;11.297689;443.9;1970-01-01T00:00:00Z;;
46.002239;11.297526;443.8;1970-01-01T00:00:00Z;;
46.002264;11.297415;443.8;1970-01-01T00:00:00Z;;
46.002277;11.297316;443.8;1970-01-01T00:00:00Z;;
46.00226;11.297154;443.9;1970-01-01T00:00:00Z;;
46.002189;11.297;444.1;1970-01-01T00:00:00Z;;
46.00235;11.296814;442.8;1970-01-01T00:00:00Z;;
46.001999;11.296066;442.8;1970-01-01T00:00:00Z;;
46.001819;11.295704;443.9;1970-01-01T00:00:00Z;;
46.001734;11.295426;444.3;1970-01-01T00:00:00Z;;
46.001658;11.294731;445.4;1970-01-01T00:00:00Z;;
46.001645;11.294329;445.1;1970-01-01T00:00:00Z;;
46.00164;11.294021;444.4;1970-01-01T00:00:00Z;;
46.001647;11.293831;443.9;1970-01-01T00:00:00Z;;
46.001679;11.29292;441.0;1970-01-01T00:00:00Z;;
46.001675;11.292676;441.2;1970-01-01T00:00:00Z;;
46.001665;11.292499;441.5;1970-01-01T00:00:00Z;;
46.001607;11.292226;442.1;1970-01-01T00:00:00Z;;
46.001537;11.291925;442.8;1970-01-01T00:00:00Z;;
46.001382;11.291166;444.0;1970-01-01T00:00:00Z;;
46.001254;11.290562;444.8;1970-01-01T00:00:00Z;;
46.001248;11.29042;445.0;1970-01-01T00:00:00Z;;
46.001272;11.290286;445.0;1970-01-01T00:00:00Z;;
46.001297;11.290151;445.0;1970-01-01T00:00:00Z;;
46.001333;11.290027;445.0;1970-01-01T00:00:00Z;;
46.001217;11.289951;445.0;1970-01-01T00:00:00Z;;
46.001476;11.288753;446.2;1970-01-01T00:00:00Z;;
46.001623;11.288043;445.6;1970-01-01T00:00:00Z;;
46.001692;11.287605;446.6;1970-01-01T00:00:00Z;;
46.001717;11.287254;447.8;1970-01-01T00:00:00Z;;
46.001769;11.287015;448.3;1970-01-01T00:00:00Z;;
46.00185;11.286821;448.2;1970-01-01T00:00:00Z;;
46.00193;11.286638;448.1;1970-01-01T00:00:00Z;;
46.001966;11.286546;448.0;1970-01-01T00:00:00Z;;
46.001963;11.286467;448.0;1970-01-01T00:00:00Z;;
46.001839;11.286272;448.0;1970-01-01T00:00:00Z;;
46.001585;11.285812;448.5;1970-01-01T00:00:00Z;;
46.001417;11.285521;448.9;1970-01-01T00:00:00Z;;
46.001298;11.285163;449.6;1970-01-01T00:00:00Z;;
46.001193;11.284806;450.4;1970-01-01T00:00:00Z;;
46.001112;11.284518;450.7;1970-01-01T00:00:00Z;;
46.000795;11.283987;450.7;1970-01-01T00:00:00Z;;
46.000378;11.283363;451.0;1970-01-01T00:00:00Z;;
46.000247;11.283563;451.0;1970-01-01T00:00:00Z;;
46.00024;11.283559;451.0;1970-01-01T00:00:00Z;;
46.000203;11.283603;451.0;1970-01-01T00:00:00Z;;
46.000171;11.283647;451.0;1970-01-01T00:00:00Z;;
46.000139;11.283691;451.0;1970-01-01T00:00:00Z;;
46.000106;11.283734;451.0;1970-01-01T00:00:00Z;;
46.000074;11.283778;450.9;1970-01-01T00:00:00Z;;
46.000044;11.283819;450.8;1970-01-01T00:00:00Z;;
46.000014;11.28386;450.7;1970-01-01T00:00:00Z;;
45.999984;11.2839;450.6;1970-01-01T00:00:00Z;;
45.999956;11.283941;450.5;1970-01-01T00:00:00Z;;
45.999928;11.283982;450.4;1970-01-01T00:00:00Z;;
45.9999;11.284019;450.4;1970-01-01T00:00:00Z;;
45.999872;11.284061;450.3;1970-01-01T00:00:00Z;;
45.999847;11.284098;450.2;1970-01-01T00:00:00Z;;
45.999819;11.284136;450.1;1970-01-01T00:00:00Z;;
45.999794;11.284173;450.0;1970-01-01T00:00:00Z;;
45.999768;11.284211;449.9;1970-01-01T00:00:00Z;;
45.99974;11.284249;449.8;1970-01-01T00:00:00Z;;
45.999715;11.284283;449.7;1970-01-01T00:00:00Z;;
45.999689;11.284321;449.6;1970-01-01T00:00:00Z;;
45.999664;11.284359;449.5;1970-01-01T00:00:00Z;;
45.999639;11.284393;449.5;1970-01-01T00:00:00Z;;
45.999613;11.284431;449.4;1970-01-01T00:00:00Z;;
45.999585;11.284465;449.3;1970-01-01T00:00:00Z;;
45.99956;11.284503;451.1;1970-01-01T00:00:00Z;;
45.999534;11.284537;451.2;1970-01-01T00:00:00Z;;
45.999507;11.284575;451.2;1970-01-01T00:00:00Z;;
45.999479;11.284613;451.2;1970-01-01T00:00:00Z;;
45.999451;11.284647;451.3;1970-01-01T00:00:00Z;;
45.999423;11.284684;451.3;1970-01-01T00:00:00Z;;
45.999395;11.284722;451.3;1970-01-01T00:00:00Z;;
45.999366;11.28476;451.4;1970-01-01T00:00:00Z;;
45.999338;11.284797;451.4;1970-01-01T00:00:00Z;;
45.993658;11.275004;472.2;1970-01-01T00:00:00Z;;
45.993434;11.274617;472.7;1970-01-01T00:00:00Z;;
45.993421;11.274682;472.7;1970-01-01T00:00:00Z;;
45.993409;11.274746;472.7;1970-01-01T00:00:00Z;;
45.993397;11.274806;472.7;1970-01-01T00:00:00Z;;
45.993384;11.27487;472.7;1970-01-01T00:00:00Z;;
45.993372;11.274931;472.7;1970-01-01T00:00:00Z;;
45.993359;11.274989;472.7;1970-01-01T00:00:00Z;;
45.993347;11.27505;472.7;1970-01-01T00:00:00Z;;
45.993334;11.275107;472.7;1970-01-01T00:00:00Z;;
45.993322;11.275165;472.7;1970-01-01T00:00:00Z;;
45.99331;11.275222;472.7;1970-01-01T00:00:00Z;;
45.993297;11.27528;472.6;1970-01-01T00:00:00Z;;
45.993285;11.275334;472.6;1970-01-01T00:00:00Z;;
45.993272;11.275392;472.6;1970-01-01T00:00:00Z;;
45.99326;11.275446;472.5;1970-01-01T00:00:00Z;;
45.993248;11.275504;472.4;1970-01-01T00:00:00Z;;
45.993235;11.275558;472.3;1970-01-01T00:00:00Z;;
45.993223;11.275613;472.2;1970-01-01T00:00:00Z;;
45.993213;11.275671;472.1;1970-01-01T00:00:00Z;;
45.993201;11.275725;472.0;1970-01-01T00:00:00Z;;
45.993188;11.275782;471.9;1970-01-01T00:00:00Z;;
45.993176;11.275837;471.8;1970-01-01T00:00:00Z;;
45.993163;11.275894;471.7;1970-01-01T00:00:00Z;;
45.993151;11.275952;471.6;1970-01-01T00:00:00Z;;
45.993139;11.27601;471.5;1970-01-01T00:00:00Z;;
45.993126;11.27607;471.4;1970-01-01T00:00:00Z;;
45.993116;11.276128;471.3;1970-01-01T00:00:00Z;;
45.993104;11.276189;471.1;1970-01-01T00:00:00Z;;
45.993091;11.27625;471.0;1970-01-01T00:00:00Z;;
45.993079;11.276314;470.8;1970-01-01T00:00:00Z;;
45.993068;11.276378;470.6;1970-01-01T00:00:00Z;;
45.993056;11.276442;470.3;1970-01-01T00:00:00Z;;
45.993045;11.276509;470.1;1970-01-01T00:00:00Z;;
45.991426;11.274232;476.3;1970-01-01T00:00:00Z;;
45.989556;11.271137;485.9;1970-01-01T00:00:00Z;;
45.98952;11.271067;485.8;1970-01-01T00:00:00Z;;
45.989487;11.271005;485.7;1970-01-01T00:00:00Z;;
45.989452;11.270942;485.7;1970-01-01T00:00:00Z;;
45.98942;11.270879;485.6;1970-01-01T00:00:00Z;;
45.989387;11.27082;485.6;1970-01-01T00:00:00Z;;
45.989357;11.270764;485.6;1970-01-01T00:00:00Z;;
45.989327;11.270708;485.5;1970-01-01T00:00:00Z;;
45.989296;11.270652;485.5;1970-01-01T00:00:00Z;;
45.989266;11.270599;485.5;1970-01-01T00:00:00Z;;
45.989238;11.270546;485.5;1970-01-01T00:00:00Z;;
45.989209;11.270493;485.5;1970-01-01T00:00:00Z;;
45.989181;11.27044;485.5;1970-01-01T00:00:00Z;;
45.989153;11.270391;485.5;1970-01-01T00:00:00Z;;
45.989127;11.270338;485.5;1970-01-01T00:00:00Z;;
45.989099;11.270289;485.6;1970-01-01T00:00:00Z;;
45.989073;11.270239;485.6;1970-01-01T00:00:00Z;;
45.989044;11.270186;485.6;1970-01-01T00:00:00Z;;
45.989018;11.270137;485.7;1970-01-01T00:00:00Z;;
45.988992;11.270084;485.7;1970-01-01T00:00:00Z;;
45.988964;11.270031;485.7;1970-01-01T00:00:00Z;;
45.988938;11.269978;485.8;1970-01-01T00:00:00Z;;
45.988913;11.269926;485.8;1970-01-01T00:00:00Z;;
45.988884;11.26987;485.8;1970-01-01T00:00:00Z;;
45.988858;11.269814;485.9;1970-01-01T00:00:00Z;;
45.98883;11.269758;485.9;1970-01-01T00:00:00Z;;
45.988804;11.269699;485.9;1970-01-01T00:00:00Z;;
45.988776;11.269639;486.0;1970-01-01T00:00:00Z;;
45.988748;11.269577;486.0;1970-01-01T00:00:00Z;;
45.98872;11.269511;486.3;1970-01-01T00:00:00Z;;
45.98869;11.269445;486.6;1970-01-01T00:00:00Z;;
45.98866;11.269376;486.9;1970-01-01T00:00:00Z;;
45.988632;11.269307;487.1;1970-01-01T00:00:00Z;;
45.988611;11.269255;487.3;1970-01-01T00:00:00Z;;
45.988591;11.269209;487.5;1970-01-01T00:00:00Z;;
45.988572;11.269163;487.6;1970-01-01T00:00:00Z;;
45.988553;11.269117;487.8;1970-01-01T00:00:00Z;;
45.988536;11.269071;487.9;1970-01-01T00:00:00Z;;
45.988519;11.269028;488.0;1970-01-01T00:00:00Z;;
45.988501;11.268986;488.1;1970-01-01T00:00:00Z;;
45.988484;11.268943;488.2;1970-01-01T00:00:00Z;;
45.988469;11.2689;488.3;1970-01-01T00:00:00Z;;
45.988454;11.268861;488.4;1970-01-01T00:00:00Z;;
45.988439;11.268822;488.5;1970-01-01T00:00:00Z;;
45.988424;11.268783;488.5;1970-01-01T00:00:00Z;;
45.988409;11.26874;488.6;1970-01-01T00:00:00Z;;
45.988397;11.268701;488.6;1970-01-01T00:00:00Z;;
45.988382;11.268661;488.7;1970-01-01T00:00:00Z;;
45.988369;11.268625;488.7;1970-01-01T00:00:00Z;;
45.988354;11.268583;488.7;1970-01-01T00:00:00Z;;
45.988341;11.268543;488.8;1970-01-01T00:00:00Z;;
45.988329;11.268504;488.8;1970-01-01T00:00:00Z;;
45.988316;11.268465;488.8;1970-01-01T00:00:00Z;;
45.988303;11.268422;488.9;1970-01-01T00:00:00Z;;
45.988291;11.268383;488.9;1970-01-01T00:00:00Z;;
45.988278;11.268341;489.0;1970-01-01T00:00:00Z;;
45.988265;11.268298;489.0;1970-01-01T00:00:00Z;;
45.988253;11.268252;489.1;1970-01-01T00:00:00Z;;
45.988238;11.26821;489.2;1970-01-01T00:00:00Z;;
45.988225;11.268164;489.3;1970-01-01T00:00:00Z;;
45.988213;11.268115;489.3;1970-01-01T00:00:00Z;;
45.988198;11.26807;489.4;1970-01-01T00:00:00Z;;
45.988185;11.268017;489.5;1970-01-01T00:00:00Z;;
45.988171;11.267968;489.6;1970-01-01T00:00:00Z;;
45.988158;11.267916;489.7;1970-01-01T00:00:00Z;;
45.988139;11.267851;489.8;1970-01-01T00:00:00Z;;
45.988122;11.267789;490.0;1970-01-01T00:00:00Z;;
45.988106;11.267727;490.1;1970-01-01T00:00:00Z;;
45.988091;11.267668;490.3;1970-01-01T00:00:00Z;;
45.988074;11.267613;490.4;1970-01-01T00:00:00Z;;
45.988059;11.267557;490.5;1970-01-01T00:00:00Z;;
45.988045;11.267505;490.7;1970-01-01T00:00:00Z;;
45.98803;11.267449;490.8;1970-01-01T00:00:00Z;;
45.988015;11.2674;491.0;1970-01-01T00:00:00Z;;
45.988003;11.267348;491.1;1970-01-01T00:00:00Z;;
45.987988;11.267299;491.3;1970-01-01T00:00:00Z;;
45.987976;11.26725;491.4;1970-01-01T00:00:00Z;;
45.987963;11.267201;491.6;1970-01-01T00:00:00Z;;
45.98795;11.267152;491.7;1970-01-01T00:00:00Z;;
45.987936;11.267103;491.9;1970-01-01T00:00:00Z;;
45.987925;11.267058;492.0;1970-01-01T00:00:00Z;;
45.987913;11.267009;492.0;1970-01-01T00:00:00Z;;
45.9879;11.26696;492.0;1970-01-01T00:00:00Z;;
45.987888;11.266911;492.0;1970-01-01T00:00:00Z;;
45.987875;11.266865;492.0;1970-01-01T00:00:00Z;;
45.987863;11.266816;492.0;1970-01-01T00:00:00Z;;
45.98785;11.266764;492.0;1970-01-01T00:00:00Z;;
45.98784;11.266715;491.9;1970-01-01T00:00:00Z;;
45.987827;11.266663;491.9;1970-01-01T00:00:00Z;;
45.987815;11.266611;491.9;1970-01-01T00:00:00Z;;
45.987803;11.266555;492.0;1970-01-01T00:00:00Z;;
45.98779;11.266503;492.0;1970-01-01T00:00:00Z;;
45.987778;11.266445;492.0;1970-01-01T00:00:00Z;;
45.987765;11.266386;492.0;1970-01-01T00:00:00Z;;
45.987751;11.266327;492.0;1970-01-01T00:00:00Z;;
45.987739;11.266266;492.0;1970-01-01T00:00:00Z;;
45.987726;11.266204;492.0;1970-01-01T00:00:00Z;;
45.98776;11.266186;492.0;1970-01-01T00:00:00Z;;
45.987785;11.26618;492.0;1970-01-01T00:00:00Z;;
45.987828;11.266192;492.0;1970-01-01T00:00:00Z;;
45.987855;11.266199;492.0;1970-01-01T00:00:00Z;;
45.987884;11.266204;492.0;1970-01-01T00:00:00Z;;
45.987911;11.266208;492.0;1970-01-01T00:00:00Z;;
45.987938;11.266209;491.9;1970-01-01T00:00:00Z;;
45.987963;11.266207;491.8;1970-01-01T00:00:00Z;;
45.98799;11.266205;491.8;1970-01-01T00:00:00Z;;
45.988014;11.2662;491.7;1970-01-01T00:00:00Z;;
45.988039;11.266191;491.6;1970-01-01T00:00:00Z;;
45.988064;11.266182;491.6;1970-01-01T00:00:00Z;;
45.988089;11.266174;491.5;1970-01-01T00:00:00Z;;
45.988116;11.266161;491.4;1970-01-01T00:00:00Z;;
45.988141;11.26615;491.3;1970-01-01T00:00:00Z;;
45.988166;11.266135;491.2;1970-01-01T00:00:00Z;;
45.988194;11.266123;491.1;1970-01-01T00:00:00Z;;
45.988221;11.266108;491.0;1970-01-01T00:00:00Z;;
45.988251;11.266096;490.9;1970-01-01T00:00:00Z;;
45.988273;11.266081;490.9;1970-01-01T00:00:00Z;;
45.988298;11.266069;490.8;1970-01-01T00:00:00Z;;
45.988342;11.266042;490.6;1970-01-01T00:00:00Z;;
45.988385;11.266014;490.4;1970-01-01T00:00:00Z;;
45.988424;11.265984;490.3;1970-01-01T00:00:00Z;;
45.98846;11.265953;490.1;1970-01-01T00:00:00Z;;
45.988495;11.265922;489.9;1970-01-01T00:00:00Z;;
45.988529;11.265891;489.8;1970-01-01T00:00:00Z;;
45.988564;11.265857;489.6;1970-01-01T00:00:00Z;;
45.988596;11.265823;489.4;1970-01-01T00:00:00Z;;
45.988628;11.265785;489.3;1970-01-01T00:00:00Z;;
45.988662;11.265748;489.1;1970-01-01T00:00:00Z;;
45.988697;11.265711;488.9;1970-01-01T00:00:00Z;;
45.988731;11.26567;488.7;1970-01-01T00:00:00Z;;
45.988768;11.26563;488.5;1970-01-01T00:00:00Z;;
45.98881;11.265586;488.4;1970-01-01T00:00:00Z;;
45.988853;11.265546;488.3;1970-01-01T00:00:00Z;;
45.988881;11.265518;488.2;1970-01-01T00:00:00Z;;
45.988908;11.26549;488.2;1970-01-01T00:00:00Z;;
45.988936;11.265462;488.1;1970-01-01T00:00:00Z;;
45.988963;11.265437;488.0;1970-01-01T00:00:00Z;;
45.988991;11.265413;488.0;1970-01-01T00:00:00Z;;
45.989016;11.265388;488.1;1970-01-01T00:00:00Z;;
45.989041;11.265363;488.3;1970-01-01T00:00:00Z;;
45.989067;11.265339;488.4;1970-01-01T00:00:00Z;;
45.989092;11.265317;488.5;1970-01-01T00:00:00Z;;
45.989115;11.265292;488.7;1970-01-01T00:00:00Z;;
45.98914;11.26527;488.8;1970-01-01T00:00:00Z;;
45.989163;11.265249;489.0;1970-01-01T00:00:00Z;;
45.989186;11.265227;489.2;1970-01-01T00:00:00Z;;
45.989209;11.265206;489.3;1970-01-01T00:00:00Z;;
45.989255;11.265162;489.7;1970-01-01T00:00:00Z;;
45.9893;11.265116;490.2;1970-01-01T00:00:00Z;;
45.989344;11.265072;490.6;1970-01-01T00:00:00Z;;
45.98939;11.265029;491.1;1970-01-01T00:00:00Z;;
45.989434;11.264982;491.6;1970-01-01T00:00:00Z;;
45.989479;11.264936;492.2;1970-01-01T00:00:00Z;;
45.989502;11.264914;492.5;1970-01-01T00:00:00Z;;
45.989525;11.264889;492.8;1970-01-01T00:00:00Z;;
45.989548;11.264864;493.1;1970-01-01T00:00:00Z;;
45.989574;11.264839;493.5;1970-01-01T00:00:00Z;;
45.989597;11.264811;493.7;1970-01-01T00:00:00Z;;
45.989622;11.264787;493.8;1970-01-01T00:00:00Z;;
45.989661;11.264737;494.0;1970-01-01T00:00:00Z;;
45.989698;11.26469;494.1;1970-01-01T00:00:00Z;;
45.98973;11.264649;494.2;1970-01-01T00:00:00Z;;
45.989758;11.264605;494.4;1970-01-01T00:00:00Z;;
45.989784;11.264564;494.6;1970-01-01T00:00:00Z;;
45.989807;11.264523;495.0;1970-01-01T00:00:00Z;;
45.989826;11.264479;495.5;1970-01-01T00:00:00Z;;
45.989845;11.264437;495.8;1970-01-01T00:00:00Z;;
45.989859;11.26439;496.3;1970-01-01T00:00:00Z;;
45.989874;11.264342;496.8;1970-01-01T00:00:00Z;;
45.989888;11.264291;497.3;1970-01-01T00:00:00Z;;
45.989901;11.264236;497.8;1970-01-01T00:00:00Z;;
45.989913;11.264179;498.3;1970-01-01T00:00:00Z;;
45.989926;11.264115;498.9;1970-01-01T00:00:00Z;;
45.989933;11.264079;499.2;1970-01-01T00:00:00Z;;
45.989938;11.264044;499.5;1970-01-01T00:00:00Z;;
45.989946;11.264009;499.8;1970-01-01T00:00:00Z;;
45.989953;11.26397;500.1;1970-01-01T00:00:00Z;;
45.989958;11.263932;500.4;1970-01-01T00:00:00Z;;
45.989968;11.263897;500.6;1970-01-01T00:00:00Z;;
45.989976;11.263861;500.9;1970-01-01T00:00:00Z;;
45.989985;11.26383;501.0;1970-01-01T00:00:00Z;;
45.989995;11.263795;501.1;1970-01-01T00:00:00Z;;
45.990005;11.263763;501.2;1970-01-01T00:00:00Z;;
45.990026;11.263702;501.4;1970-01-01T00:00:00Z;;
45.99005;11.263642;501.4;1970-01-01T00:00:00Z;;
45.990073;11.263585;501.3;1970-01-01T00:00:00Z;;
45.990101;11.263528;501.0;1970-01-01T00:00:00Z;;
45.990127;11.263474;500.7;1970-01-01T00:00:00Z;;
45.990158;11.26342;500.1;1970-01-01T00:00:00Z;;
45.990186;11.263367;499.6;1970-01-01T00:00:00Z;;
45.990216;11.263313;498.9;1970-01-01T00:00:00Z;;
45.990249;11.26326;497.9;1970-01-01T00:00:00Z;;
45.990279;11.263206;497.1;1970-01-01T00:00:00Z;;
45.990311;11.263149;496.0;1970-01-01T00:00:00Z;;
45.990344;11.263092;494.9;1970-01-01T00:00:00Z;;
45.990377;11.263035;493.6;1970-01-01T00:00:00Z;;
45.9904;11.262988;492.7;1970-01-01T00:00:00Z;;
45.990423;11.262947;491.9;1970-01-01T00:00:00Z;;
45.990445;11.262909;491.9;1970-01-01T00:00:00Z;;
45.990468;11.262874;492.4;1970-01-01T00:00:00Z;;
45.990489;11.26284;492.8;1970-01-01T00:00:00Z;;
45.990512;11.262809;493.2;1970-01-01T00:00:00Z;;
45.990558;11.262752;493.7;1970-01-01T00:00:00Z;;
45.990581;11.262724;493.9;1970-01-01T00:00:00Z;;
45.990606;11.262699;494.0;1970-01-01T00:00:00Z;;
45.990631;11.262675;494.0;1970-01-01T00:00:00Z;;
45.990659;11.26265;494.0;1970-01-01T00:00:00Z;;
45.990686;11.262625;494.0;1970-01-01T00:00:00Z;;
45.990718;11.262601;493.9;1970-01-01T00:00:00Z;;
45.99075;11.262576;493.7;1970-01-01T00:00:00Z;;
45.990785;11.262552;493.4;1970-01-01T00:00:00Z;;
45.990819;11.262534;493.1;1970-01-01T00:00:00Z;;
45.990853;11.262516;492.7;1970-01-01T00:00:00Z;;
45.990885;11.262498;492.3;1970-01-01T00:00:00Z;;
45.990919;11.262483;491.8;1970-01-01T00:00:00Z;;
45.990951;11.262465;491.4;1970-01-01T00:00:00Z;;
45.990982;11.26245;491.0;1970-01-01T00:00:00Z;;
45.991012;11.262435;490.5;1970-01-01T00:00:00Z;;
45.991044;11.262417;490.0;1970-01-01T00:00:00Z;;
45.991073;11.262402;489.5;1970-01-01T00:00:00Z;;
45.991103;11.262387;489.0;1970-01-01T00:00:00Z;;
45.991132;11.262372;488.5;1970-01-01T00:00:00Z;;
45.99116;11.26236;487.9;1970-01-01T00:00:00Z;;
45.991189;11.262345;487.4;1970-01-01T00:00:00Z;;
45.991217;11.26233;486.8;1970-01-01T00:00:00Z;;
45.991244;11.262316;486.3;1970-01-01T00:00:00Z;;
45.991273;11.262304;486.1;1970-01-01T00:00:00Z;;
45.991554;11.262105;484.8;1970-01-01T00:00:00Z;;
45.992227;11.261732;480.7;1970-01-01T00:00:00Z;;
45.992674;11.261347;479.6;1970-01-01T00:00:00Z;;
45.993683;11.260491;473.4;1970-01-01T00:00:00Z;;
45.99381;11.260318;472.7;1970-01-01T00:00:00Z;;
45.993882;11.260095;472.3;1970-01-01T00:00:00Z;;
45.99436;11.257894;468.1;1970-01-01T00:00:00Z;;
45.994588;11.257186;467.0;1970-01-01T00:00:00Z;;
45.994693;11.257003;466.3;1970-01-01T00:00:00Z;;
45.99472;11.256982;466.2;1970-01-01T00:00:00Z;;
45.994747;11.256964;466.0;1970-01-01T00:00:00Z;;
45.994774;11.256945;465.9;1970-01-01T00:00:00Z;;
45.994802;11.256924;465.7;1970-01-01T00:00:00Z;;
45.99483;11.256902;465.5;1970-01-01T00:00:00Z;;
45.994859;11.256884;465.4;1970-01-01T00:00:00Z;;
45.994887;11.256863;465.2;1970-01-01T00:00:00Z;;
45.994914;11.256841;465.1;1970-01-01T00:00:00Z;;
45.994941;11.256816;464.9;1970-01-01T00:00:00Z;;
45.994969;11.256795;464.7;1970-01-01T00:00:00Z;;
45.994999;11.256774;464.6;1970-01-01T00:00:00Z;;
45.995026;11.256749;464.4;1970-01-01T00:00:00Z;;
45.995054;11.256727;464.3;1970-01-01T00:00:00Z;;
45.995081;11.256703;464.1;1970-01-01T00:00:00Z;;
45.995108;11.256681;464.0;1970-01-01T00:00:00Z;;
45.995138;11.25666;463.8;1970-01-01T00:00:00Z;;
45.99517;11.256632;463.6;1970-01-01T00:00:00Z;;
45.995202;11.256604;463.5;1970-01-01T00:00:00Z;;
45.995234;11.256577;463.3;1970-01-01T00:00:00Z;;
45.995264;11.256549;463.1;1970-01-01T00:00:00Z;;
45.995296;11.256521;463.0;1970-01-01T00:00:00Z;;
45.995326;11.256493;462.8;1970-01-01T00:00:00Z;;
45.995354;11.256465;462.7;1970-01-01T00:00:00Z;;
45.995383;11.256437;462.5;1970-01-01T00:00:00Z;;
45.995411;11.256412;462.4;1970-01-01T00:00:00Z;;
45.995438;11.256385;462.3;1970-01-01T00:00:00Z;;
45.995464;11.256357;462.2;1970-01-01T00:00:00Z;;
45.995489;11.256329;462.1;1970-01-01T00:00:00Z;;
45.995516;11.256301;462.0;1970-01-01T00:00:00Z;;
45.99554;11.256273;461.9;1970-01-01T00:00:00Z;;
45.995565;11.256245;461.8;1970-01-01T00:00:00Z;;
45.99559;11.256217;461.7;1970-01-01T00:00:00Z;;
45.995621;11.256153;461.5;1970-01-01T00:00:00Z;;
45.995647;11.256096;461.4;1970-01-01T00:00:00Z;;
45.995668;11.256045;461.2;1970-01-01T00:00:00Z;;
45.995689;11.256001;461.1;1970-01-01T00:00:00Z;;
45.995708;11.25596;461.0;1970-01-01T00:00:00Z;;
45.995879;11.255638;460.0;1970-01-01T00:00:00Z;;
45.995897;11.255583;459.8;1970-01-01T00:00:00Z;;
45.996061;11.25509;459.1;1970-01-01T00:00:00Z;;
45.996253;11.254559;459.0;1970-01-01T00:00:00Z;;
45.996391;11.254191;459.0;1970-01-01T00:00:00Z;;
45.996395;11.254187;459.0;1970-01-01T00:00:00Z;;
45.996502;11.253891;458.8;1970-01-01T00:00:00Z;;
45.997217;11.252043;458.9;1970-01-01T00:00:00Z;;
45.99826;11.2493;467.5;1970-01-01T00:00:00Z;;
45.998715;11.248113;473.9;1970-01-01T00:00:00Z;;
45.998854;11.247797;477.4;1970-01-01T00:00:00Z;;
45.999138;11.247297;483.5;1970-01-01T00:00:00Z;;
45.999375;11.247003;480.6;1970-01-01T00:00:00Z;;
45.999669;11.246702;459.9;1970-01-01T00:00:00Z;;
45.999735;11.246591;461.9;1970-01-01T00:00:00Z;;
45.999793;11.246526;463.0;1970-01-01T00:00:00Z;;
45.9998;11.24652;463.1;1970-01-01T00:00:00Z;;
45.999803;11.246519;463.2;1970-01-01T00:00:00Z;;
45.999995;11.246374;465.8;1970-01-01T00:00:00Z;;
999;999;465.8;1970-01-01T00:00:00Z;;
46.000323;11.246115;471.9;1970-01-01T00:00:00Z;;
46.000521;11.245958;474.1;1970-01-01T00:00:00Z;;
46.000852;11.245643;473.6;1970-01-01T00:00:00Z;;
46.001028;11.245474;471.9;1970-01-01T00:00:00Z;;
46.001811;11.244509;472.6;1970-01-01T00:00:00Z;;
46.00241;11.243761;473.6;1970-01-01T00:00:00Z;;
46.00247;11.243706;473.5;1970-01-01T00:00:00Z;;
46.002524;11.243613;474.1;1970-01-01T00:00:00Z;;
46.002528;11.243606;474.1;1970-01-01T00:00:00Z;;
46.002713;11.243421;472.4;1970-01-01T00:00:00Z;;
46.003188;11.242915;469.0;1970-01-01T00:00:00Z;;
46.003319;11.242754;468.2;1970-01-01T00:00:00Z;;
46.003327;11.242746;468.2;1970-01-01T00:00:00Z;;
46.003457;11.242531;467.1;1970-01-01T00:00:00Z;;
46.004009;11.241627;464.4;1970-01-01T00:00:00Z;;
46.004085;11.241544;464.5;1970-01-01T00:00:00Z;;
46.004089;11.241543;464.5;1970-01-01T00:00:00Z;;
46.004139;11.241548;464.5;1970-01-01T00:00:00Z;;
46.004177;11.241586;464.4;1970-01-01T00:00:00Z;;
46.00418;11.241587;464.4;1970-01-01T00:00:00Z;;
46.004243;11.24162;464.3;1970-01-01T00:00:00Z;;
46.004328;11.241704;464.1;1970-01-01T00:00:00Z;;
46.004568;11.241858;463.6;1970-01-01T00:00:00Z;;
46.00464;11.241907;463.5;1970-01-01T00:00:00Z;;
46.00486;11.241889;463.9;1970-01-01T00:00:00Z;;
46.004894;11.241898;463.9;1970-01-01T00:00:00Z;;
46.004968;11.242014;463.4;1970-01-01T00:00:00Z;;
46.005014;11.242068;463.1;1970-01-01T00:00:00Z;;
46.005107;11.242073;463.1;1970-01-01T00:00:00Z;;
46.005157;11.242041;463.3;1970-01-01T00:00:00Z;;
46.005282;11.242201;462.7;1970-01-01T00:00:00Z;;
46.005466;11.242425;461.9;1970-01-01T00:00:00Z;;
46.005471;11.242431;461.9;1970-01-01T00:00:00Z;;
46.006181;11.243568;457.4;1970-01-01T00:00:00Z;;
46.006193;11.24359;457.3;1970-01-01T00:00:00Z;;
46.006175;11.243638;457.3;1970-01-01T00:00:00Z;;
46.006253;11.243506;457.3;1970-01-01T00:00:00Z;;
46.006435;11.243394;456.5;1970-01-01T00:00:00Z;;
46.006571;11.24199;456.7;1970-01-01T00:00:00Z;;
46.006591;11.24189;456.9;1970-01-01T00:00:00Z;;
46.006628;11.241854;456.8;1970-01-01T00:00:00Z;;
46.006658;11.241852;456.6;1970-01-01T00:00:00Z;;
46.006658;11.241853;456.6;1970-01-01T00:00:00Z;;
46.006662;11.241821;456.7;1970-01-01T00:00:00Z;;
46.006691;11.241656;456.8;1970-01-01T00:00:00Z;;
46.006753;11.241418;456.9;1970-01-01T00:00:00Z;;
46.006856;11.241418;456.0;1970-01-01T00:00:00Z;;
46.007192;11.241482;453.5;1970-01-01T00:00:00Z;;
46.007198;11.241482;453.4;1970-01-01T00:00:00Z;;
46.007207;11.241482;453.4;1970-01-01T00:00:00Z;;
46.007212;11.241482;453.4;1970-01-01T00:00:00Z;;
46.007219;11.241486;453.3;1970-01-01T00:00:00Z;;
46.007227;11.241491;453.3;1970-01-01T00:00:00Z;;
46.007234;11.241493;453.3;1970-01-01T00:00:00Z;;
46.007239;11.241502;453.2;1970-01-01T00:00:00Z;;
46.0072;11.242039;453.7;1970-01-01T00:00:00Z;;
46.007336;11.242066;453.4;1970-01-01T00:00:00Z;;
46.007319;11.242285;453.2;1970-01-01T00:00:00Z;;
46.00738;11.241675;452.8;1970-01-01T00:00:00Z;;
46.007473;11.240633;454.0;1970-01-01T00:00:00Z;;
46.007525;11.240261;456.9;1970-01-01T00:00:00Z;;
46.007586;11.239927;462.0;1970-01-01T00:00:00Z;;
46.007662;11.239557;467.6;1970-01-01T00:00:00Z;;
46.007767;11.239185;474.1;1970-01-01T00:00:00Z;;
46.007971;11.238787;479.5;1970-01-01T00:00:00Z;;
46.008217;11.238347;483.3;1970-01-01T00:00:00Z;;
46.008448;11.238002;486.8;1970-01-01T00:00:00Z;;
46.008685;11.237616;493.0;1970-01-01T00:00:00Z;;
46.008871;11.237369;495.3;1970-01-01T00:00:00Z;;
46.009099;11.237114;494.7;1970-01-01T00:00:00Z;;
46.009366;11.236944;489.2;1970-01-01T00:00:00Z;;
46.00958;11.236837;484.2;1970-01-01T00:00:00Z;;
46.009916;11.236731;478.9;1970-01-01T00:00:00Z;;
46.010287;11.236624;473.0;1970-01-01T00:00:00Z;;
46.010659;11.236576;471.2;1970-01-01T00:00:00Z;;
46.011064;11.236541;472.0;1970-01-01T00:00:00Z;;
46.011354;11.236428;474.1;1970-01-01T00:00:00Z;;
46.011864;11.23615;477.5;1970-01-01T00:00:00Z;;
46.012188;11.235991;480.4;1970-01-01T00:00:00Z;;
46.012394;11.235944;479.5;1970-01-01T00:00:00Z;;
46.012613;11.235941;476.5;1970-01-01T00:00:00Z;;
46.012828;11.235905;474.9;1970-01-01T00:00:00Z;;
46.013112;11.235732;477.4;1970-01-01T00:00:00Z;;
46.013598;11.235317;481.9;1970-01-01T00:00:00Z;;
46.013801;11.235114;485.3;1970-01-01T00:00:00Z;;
46.013993;11.234942;489.5;1970-01-01T00:00:00Z;;
46.014235;11.234823;491.4;1970-01-01T00:00:00Z;;
46.014441;11.23472;493.2;1970-01-01T00:00:00Z;;
46.014638;11.234692;491.6;1970-01-01T00:00:00Z;;
46.014937;11.23464;486.9;1970-01-01T00:00:00Z;;
46.015562;11.234592;474.4;1970-01-01T00:00:00Z;;
46.0158;11.234532;470.9;1970-01-01T00:00:00Z;;
46.015994;11.234471;468.2;1970-01-01T00:00:00Z;;
46.01628;11.234304;466.4;1970-01-01T00:00:00Z;;
46.016695;11.234039;468.2;1970-01-01T00:00:00Z;;
46.016971;11.233795;469.1;1970-01-01T00:00:00Z;;
46.017324;11.233345;473.3;1970-01-01T00:00:00Z;;
46.017595;11.232979;474.3;1970-01-01T00:00:00Z;;
46.017755;11.232797;474.2;1970-01-01T00:00:00Z;;
46.017903;11.232674;473.4;1970-01-01T00:00:00Z;;
46.01811;11.232551;475.4;1970-01-01T00:00:00Z;;
46.018528;11.232381;478.9;1970-01-01T00:00:00Z;;
46.018865;11.23226;480.1;1970-01-01T00:00:00Z;;
46.019134;11.232162;477.8;1970-01-01T00:00:00Z;;
46.019373;11.23196;477.1;1970-01-01T00:00:00Z;;
46.019625;11.231722;476.0;1970-01-01T00:00:00Z;;
46.019792;11.231517;476.1;1970-01-01T00:00:00Z;;
46.020114;11.231082;480.2;1970-01-01T00:00:00Z;;
46.020405;11.230869;482.4;1970-01-01T00:00:00Z;;
46.020638;11.230724;482.6;1970-01-01T00:00:00Z;;
46.020963;11.230612;479.2;1970-01-01T00:00:00Z;;
46.021318;11.23056;473.8;1970-01-01T00:00:00Z;;
46.021776;11.230487;471.9;1970-01-01T00:00:00Z;;
46.022143;11.230406;470.7;1970-01-01T00:00:00Z;;
46.022465;11.230385;467.9;1970-01-01T00:00:00Z;;
46.022736;11.230358;465.6;1970-01-01T00:00:00Z;;
46.022996;11.230344;463.3;1970-01-01T00:00:00Z;;
46.02323;11.230332;462.1;1970-01-01T00:00:00Z;;
46.023426;11.230313;461.3;1970-01-01T00:00:00Z;;
46.023749;11.23029;459.6;1970-01-01T00:00:00Z;;
46.023834;11.230266;459.9;1970-01-01T00:00:00Z;;
46.023928;11.230224;460.5;1970-01-01T00:00:00Z;;
46.02405;11.230226;460.1;1970-01-01T00:00:00Z;;
46.024151;11.23023;459.8;1970-01-01T00:00:00Z;;
46.024273;11.230216;459.7;1970-01-01T00:00:00Z;;
46.024347;11.230231;459.3;1970-01-01T00:00:00Z;;
46.024462;11.230282;458.2;1970-01-01T00:00:00Z;;
46.024567;11.230363;456.8;1970-01-01T00:00:00Z;;
46.024895;11.230584;454.0;1970-01-01T00:00:00Z;;
46.025017;11.230653;453.4;1970-01-01T00:00:00Z;;
46.025219;11.23079;452.2;1970-01-01T00:00:00Z;;
46.02532;11.230835;451.9;1970-01-01T00:00:00Z;;
46.02546;11.230887;451.7;1970-01-01T00:00:00Z;;
46.025618;11.230932;451.8;1970-01-01T00:00:00Z;;
46.025734;11.23094;452.0;1970-01-01T00:00:00Z;;
46.026058;11.230964;452.6;1970-01-01T00:00:00Z;;
46.026242;11.230971;453.0;1970-01-01T00:00:00Z;;
46.026335;11.230973;453.1;1970-01-01T00:00:00Z;;
46.02638;11.230951;453.4;1970-01-01T00:00:00Z;;
46.026435;11.230954;453.4;1970-01-01T00:00:00Z;;
46.026491;11.230981;453.3;1970-01-01T00:00:00Z;;
46.026576;11.23103;453.2;1970-01-01T00:00:00Z;;
46.026604;11.231005;453.4;1970-01-01T00:00:00Z;;
46.026596;11.230926;453.8;1970-01-01T00:00:00Z;;
46.02657;11.230744;454.9;1970-01-01T00:00:00Z;;
46.026538;11.230674;455.4;1970-01-01T00:00:00Z;;
46.026505;11.230631;455.6;1970-01-01T00:00:00Z;;
46.026507;11.230591;455.9;1970-01-01T00:00:00Z;;
46.026549;11.230545;456.2;1970-01-01T00:00:00Z;;
46.026713;11.230386;457.1;1970-01-01T00:00:00Z;;
46.026756;11.230256;457.8;1970-01-01T00:00:00Z;;
46.026794;11.230132;458.4;1970-01-01T00:00:00Z;;
46.026952;11.229929;459.3;1970-01-01T00:00:00Z;;
46.027004;11.229817;459.9;1970-01-01T00:00:00Z;;
46.027108;11.229622;460.9;1970-01-01T00:00:00Z;;
46.027211;11.229445;463.9;1970-01-01T00:00:00Z;;
46.027291;11.229362;465.9;1970-01-01T00:00:00Z;;
46.027404;11.229322;467.6;1970-01-01T00:00:00Z;;
46.027591;11.229379;468.0;1970-01-01T00:00:00Z;;
46.02795;11.229541;466.2;1970-01-01T00:00:00Z;;
46.028217;11.229641;465.1;1970-01-01T00:00:00Z;;
46.028671;11.22975;465.4;1970-01-01T00:00:00Z;;
46.029405;11.22991;466.8;1970-01-01T00:00:00Z;;
46.029681;11.229951;467.4;1970-01-01T00:00:00Z;;
46.030068;11.229997;467.9;1970-01-01T00:00:00Z;;
46.030512;11.230118;467.8;1970-01-01T00:00:00Z;;
46.030634;11.230123;467.8;1970-01-01T00:00:00Z;;
46.031025;11.230047;468.5;1970-01-01T00:00:00Z;;
46.031755;11.229869;469.2;1970-01-01T00:00:00Z;;
46.03212;11.229798;469.4;1970-01-01T00:00:00Z;;
46.032283;11.229733;470.1;1970-01-01T00:00:00Z;;
46.032419;11.229669;471.0;1970-01-01T00:00:00Z;;
46.032511;11.229627;471.8;1970-01-01T00:00:00Z;;
46.032591;11.22979;468.9;1970-01-01T00:00:00Z;;
46.032939;11.229487;477.4;1970-01-01T00:00:00Z;;
46.033083;11.229366;481.5;1970-01-01T00:00:00Z;;
46.03337;11.229226;484.6;1970-01-01T00:00:00Z;;
46.03364;11.229157;484.3;1970-01-01T00:00:00Z;;
46.033995;11.229222;477.3;1970-01-01T00:00:00Z;;
46.034183;11.229268;473.3;1970-01-01T00:00:00Z;;
46.034821;11.229437;463.7;1970-01-01T00:00:00Z;;
46.035096;11.229537;461.3;1970-01-01T00:00:00Z;;
46.035096;11.229537;461.3;1970-01-01T00:00:00Z;;
46.035222;11.229581;460.4;1970-01-01T00:00:00Z;;
46.035446;11.229629;460.4;1970-01-01T00:00:00Z;;
46.035597;11.229654;460.4;1970-01-01T00:00:00Z;;
46.035895;11.229742;459.9;1970-01-01T00:00:00Z;;
46.036238;11.229666;461.9;1970-01-01T00:00:00Z;;
46.036598;11.229865;457.9;1970-01-01T00:00:00Z;;
46.036982;11.230124;453.5;1970-01-01T00:00:00Z;;
46.037363;11.230504;450.3;1970-01-01T00:00:00Z;;
46.037673;11.230979;450.7;1970-01-01T00:00:00Z;;
46.03806;11.231661;451.2;1970-01-01T00:00:00Z;;
46.038499;11.232448;451.8;1970-01-01T00:00:00Z;;
46.038731;11.232843;452.0;1970-01-01T00:00:00Z;;
46.038974;11.233116;452.1;1970-01-01T00:00:00Z;;
46.039293;11.233372;451.8;1970-01-01T00:00:00Z;;
46.039567;11.233475;451.4;1970-01-01T00:00:00Z;;
46.039969;11.233573;452.5;1970-01-01T00:00:00Z;;
46.040179;11.233564;453.2;1970-01-01T00:00:00Z;;
46.040708;11.233331;455.2;1970-01-01T00:00:00Z;;
46.041319;11.232994;457.8;1970-01-01T00:00:00Z;;
46.042201;11.232486;457.4;1970-01-01T00:00:00Z;;
46.042524;11.232353;457.5;1970-01-01T00:00:00Z;;
46.043051;11.232222;457.9;1970-01-01T00:00:00Z;;
46.043483;11.232166;459.0;1970-01-01T00:00:00Z;;
46.044136;11.232141;459.8;1970-01-01T00:00:00Z;;
46.044542;11.232191;459.6;1970-01-01T00:00:00Z;;
46.044699;11.23223;459.7;1970-01-01T00:00:00Z;;
46.045028;11.232393;459.8;1970-01-01T00:00:00Z;;
46.04551;11.232663;459.6;1970-01-01T00:00:00Z;;
46.046045;11.232995;460.0;1970-01-01T00:00:00Z;;
46.046469;11.233269;460.3;1970-01-01T00:00:00Z;;
46.04687;11.233486;460.2;1970-01-01T00:00:00Z;;
46.047243;11.233645;460.2;1970-01-01T00:00:00Z;;
46.047961;11.233872;461.2;1970-01-01T00:00:00Z;;
46.048602;11.234012;460.6;1970-01-01T00:00:00Z;;
46.048976;11.234048;460.5;1970-01-01T00:00:00Z;;
46.049438;11.234049;460.3;1970-01-01T00:00:00Z;;
46.049694;11.234025;460.2;1970-01-01T00:00:00Z;;
46.049875;11.23399;460.1;1970-01-01T00:00:00Z;;
46.050223;11.233871;460.0;1970-01-01T00:00:00Z;;
46.050399;11.233817;459.8;1970-01-01T00:00:00Z;;
46.050622;11.233769;460.4;1970-01-01T00:00:00Z;;
46.050849;11.233776;460.9;1970-01-01T00:00:00Z;;
46.051184;11.233856;461.5;1970-01-01T00:00:00Z;;
46.051411;11.233917;461.8;1970-01-01T00:00:00Z;;
46.051671;11.233928;462.4;1970-01-01T00:00:00Z;;
46.051824;11.233882;462.9;1970-01-01T00:00:00Z;;
46.052433;11.233609;464.0;1970-01-01T00:00:00Z;;
46.053432;11.233171;463.6;1970-01-01T00:00:00Z;;
46.053731;11.233054;463.5;1970-01-01T00:00:00Z;;
46.05453;11.232672;463.1;1970-01-01T00:00:00Z;;
46.054649;11.2326;463.2;1970-01-01T00:00:00Z;;
46.054779;11.232398;463.8;1970-01-01T00:00:00Z;;
46.054915;11.232339;463.9;1970-01-01T00:00:00Z;;
46.055277;11.232224;463.9;1970-01-01T00:00:00Z;;
46.055476;11.23218;463.8;1970-01-01T00:00:00Z;;
46.055693;11.232112;463.3;1970-01-01T00:00:00Z;;
46.056001;11.232008;462.9;1970-01-01T00:00:00Z;;
46.056119;11.231948;462.8;1970-01-01T00:00:00Z;;
46.056228;11.231901;462.7;1970-01-01T00:00:00Z;;
46.057242;11.231179;463.4;1970-01-01T00:00:00Z;;
46.057506;11.230995;464.3;1970-01-01T00:00:00Z;;
46.057657;11.230627;465.7;1970-01-01T00:00:00Z;;
46.057713;11.230564;466.0;1970-01-01T00:00:00Z;;
46.058192;11.229989;466.4;1970-01-01T00:00:00Z;;
46.058607;11.229488;464.9;1970-01-01T00:00:00Z;;
46.058718;11.229325;464.5;1970-01-01T00:00:00Z;;
46.058892;11.229164;464.6;1970-01-01T00:00:00Z;;
46.059287;11.228753;465.6;1970-01-01T00:00:00Z;;
46.059471;11.22854;466.5;1970-01-01T00:00:00Z;;
46.059573;11.228364;466.9;1970-01-01T00:00:00Z;;
46.05964;11.228211;467.0;1970-01-01T00:00:00Z;;
46.059745;11.227905;466.9;1970-01-01T00:00:00Z;;
46.059839;11.227702;466.7;1970-01-01T00:00:00Z;;
46.059932;11.227538;466.4;1970-01-01T00:00:00Z;;
46.060155;11.227172;465.7;1970-01-01T00:00:00Z;;
46.060304;11.226919;465.3;1970-01-01T00:00:00Z;;
46.060416;11.22673;465.3;1970-01-01T00:00:00Z;;
46.0605;11.226552;465.5;1970-01-01T00:00:00Z;;
46.060548;11.226425;465.6;1970-01-01T00:00:00Z;;
46.060578;11.226258;466.0;1970-01-01T00:00:00Z;;
46.06059;11.226103;466.6;1970-01-01T00:00:00Z;;
46.060629;11.22595;467.1;1970-01-01T00:00:00Z;;
46.060678;11.225745;467.7;1970-01-01T00:00:00Z;;
46.060689;11.225616;468.2;1970-01-01T00:00:00Z;;
46.060713;11.225333;469.0;1970-01-01T00:00:00Z;;
46.060743;11.225153;469.2;1970-01-01T00:00:00Z;;
46.060773;11.225024;469.2;1970-01-01T00:00:00Z;;
46.060821;11.224871;469.1;1970-01-01T00:00:00Z;;
46.061205;11.223633;469.3;1970-01-01T00:00:00Z;;
46.06132;11.223715;468.7;1970-01-01T00:00:00Z;;
46.061369;11.223545;468.4;1970-01-01T00:00:00Z;;
46.061455;11.223288;468.0;1970-01-01T00:00:00Z;;
46.061543;11.223052;467.6;1970-01-01T00:00:00Z;;
46.061618;11.222793;467.3;1970-01-01T00:00:00Z;;
46.06169;11.222527;467.1;1970-01-01T00:00:00Z;;
46.061739;11.222294;467.0;1970-01-01T00:00:00Z;;
46.061767;11.22208;466.9;1970-01-01T00:00:00Z;;
46.061779;11.221866;467.1;1970-01-01T00:00:00Z;;
46.061795;11.221604;467.3;1970-01-01T00:00:00Z;;
46.061767;11.221422;467.8;1970-01-01T00:00:00Z;;
46.06173;11.221191;468.6;1970-01-01T00:00:00Z;;
46.061687;11.220999;469.6;1970-01-01T00:00:00Z;;
46.061659;11.220844;470.3;1970-01-01T00:00:00Z;;
46.061664;11.220485;471.3;1970-01-01T00:00:00Z;;
46.061675;11.219731;472.3;1970-01-01T00:00:00Z;;
46.061659;11.219363;472.4;1970-01-01T00:00:00Z;;
46.061633;11.219166;472.4;1970-01-01T00:00:00Z;;
46.06161;11.218862;472.3;1970-01-01T00:00:00Z;;
46.061606;11.217744;473.4;1970-01-01T00:00:00Z;;
46.061617;11.217642;473.3;1970-01-01T00:00:00Z;;
46.06163;11.217533;473.1;1970-01-01T00:00:00Z;;
46.061642;11.217404;473.0;1970-01-01T00:00:00Z;;
46.061682;11.217285;472.4;1970-01-01T00:00:00Z;;
46.061701;11.217232;472.2;1970-01-01T00:00:00Z;;
46.061714;11.217106;471.9;1970-01-01T00:00:00Z;;
46.061725;11.216901;471.6;1970-01-01T00:00:00Z;;
46.06172;11.216695;471.6;1970-01-01T00:00:00Z;;
46.061711;11.216496;471.6;1970-01-01T00:00:00Z;;
46.061701;11.21637;471.7;1970-01-01T00:00:00Z;;
46.061717;11.216241;471.4;1970-01-01T00:00:00Z;;
46.061763;11.215975;471.0;1970-01-01T00:00:00Z;;
46.061822;11.215752;470.6;1970-01-01T00:00:00Z;;
46.06184;11.215635;470.5;1970-01-01T00:00:00Z;;
46.06184;11.215539;470.6;1970-01-01T00:00:00Z;;
46.061831;11.215391;470.8;1970-01-01T00:00:00Z;;
46.061785;11.215236;471.2;1970-01-01T00:00:00Z;;
46.061692;11.215024;471.8;1970-01-01T00:00:00Z;;
46.061652;11.214813;472.1;1970-01-01T00:00:00Z;;
46.061603;11.214654;472.3;1970-01-01T00:00:00Z;;
46.061559;11.214501;473.2;1970-01-01T00:00:00Z;;
46.061548;11.214377;474.4;1970-01-01T00:00:00Z;;
46.061548;11.214282;475.2;1970-01-01T00:00:00Z;;
46.06157;11.21419;475.9;1970-01-01T00:00:00Z;;
46.061629;11.214104;476.3;1970-01-01T00:00:00Z;;
46.061734;11.214;476.5;1970-01-01T00:00:00Z;;
46.061839;11.213912;476.5;1970-01-01T00:00:00Z;;
46.061982;11.213821;476.2;1970-01-01T00:00:00Z;;
46.062077;11.213779;475.8;1970-01-01T00:00:00Z;;
46.062148;11.213785;475.6;1970-01-01T00:00:00Z;;
46.062381;11.213741;475.4;1970-01-01T00:00:00Z;;
46.062502;11.21371;475.8;1970-01-01T00:00:00Z;;
46.062661;11.213641;477.1;1970-01-01T00:00:00Z;;
46.062762;11.213591;478.4;1970-01-01T00:00:00Z;;
46.062839;11.213522;480.4;1970-01-01T00:00:00Z;;
46.063042;11.213449;481.4;1970-01-01T00:00:00Z;;
46.063214;11.213412;480.9;1970-01-01T00:00:00Z;;
46.063353;11.21342;479.3;1970-01-01T00:00:00Z;;
46.063478;11.2134;478.8;1970-01-01T00:00:00Z;;
46.063642;11.213329;479.6;1970-01-01T00:00:00Z;;
46.063804;11.213321;478.4;1970-01-01T00:00:00Z;;
46.064046;11.213318;476.2;1970-01-01T00:00:00Z;;
46.064301;11.213271;475.4;1970-01-01T00:00:00Z;;
46.06449;11.213234;474.9;1970-01-01T00:00:00Z;;
46.064697;11.213133;475.4;1970-01-01T00:00:00Z;;
46.06487;11.212986;476.9;1970-01-01T00:00:00Z;;
46.065032;11.212786;480.3;1970-01-01T00:00:00Z;;
46.065106;11.212708;481.3;1970-01-01T00:00:00Z;;
46.065167;11.212687;480.7;1970-01-01T00:00:00Z;;
46.065182;11.212773;477.5;1970-01-01T00:00:00Z;;
46.065157;11.212916;473.3;1970-01-01T00:00:00Z;;
46.064999;11.213617;455.1;1970-01-01T00:00:00Z;;
46.064927;11.21392;451.4;1970-01-01T00:00:00Z;;
46.064862;11.214326;450.8;1970-01-01T00:00:00Z;;
46.06486;11.214419;450.5;1970-01-01T00:00:00Z;;
46.064904;11.214464;450.0;1970-01-01T00:00:00Z;;
46.064976;11.214523;449.3;1970-01-01T00:00:00Z;;
46.065088;11.214576;448.4;1970-01-01T00:00:00Z;;
46.065175;11.214593;447.7;1970-01-01T00:00:00Z;;
46.065298;11.214666;446.8;1970-01-01T00:00:00Z;;
46.065396;11.214683;446.1;1970-01-01T00:00:00Z;;
46.065503;11.214684;445.6;1970-01-01T00:00:00Z;;
46.065613;11.214668;445.1;1970-01-01T00:00:00Z;;
46.0657;11.21464;444.7;1970-01-01T00:00:00Z;;
46.065799;11.214633;444.2;1970-01-01T00:00:00Z;;
46.065901;11.21469;443.7;1970-01-01T00:00:00Z;;
46.066;11.214654;443.3;1970-01-01T00:00:00Z;;
46.066039;11.21461;443.0;1970-01-01T00:00:00Z;;
46.066056;11.214517;442.9;1970-01-01T00:00:00Z;;
46.066053;11.214407;442.8;1970-01-01T00:00:00Z;;
46.066087;11.214345;442.6;1970-01-01T00:00:00Z;;
46.066237;11.214073;441.5;1970-01-01T00:00:00Z;;
46.066389;11.213783;440.7;1970-01-01T00:00:00Z;;
46.066435;11.213731;440.7;1970-01-01T00:00:00Z;;
46.0665;11.213773;440.4;1970-01-01T00:00:00Z;;
46.066936;11.214183;439.9;1970-01-01T00:00:00Z;;
46.067003;11.213968;439.5;1970-01-01T00:00:00Z;;
46.067057;11.213697;439.0;1970-01-01T00:00:00Z;;
46.067066;11.213444;438.7;1970-01-01T00:00:00Z;;
46.067063;11.213274;438.6;1970-01-01T00:00:00Z;;
46.067063;11.213216;438.5;1970-01-01T00:00:00Z;;
46.06712;11.213134;438.2;1970-01-01T00:00:00Z;;
46.06724;11.212731;438.4;1970-01-01T00:00:00Z;;
46.067397;11.212285;439.7;1970-01-01T00:00:00Z;;
46.067546;11.211725;442.7;1970-01-01T00:00:00Z;;
46.067687;11.211159;445.9;1970-01-01T00:00:00Z;;
46.067747;11.210917;447.1;1970-01-01T00:00:00Z;;
46.0678;11.21085;447.1;1970-01-01T00:00:00Z;;
46.067874;11.210839;446.4;1970-01-01T00:00:00Z;;
46.067965;11.210909;445.1;1970-01-01T00:00:00Z;;
46.06811;11.211044;442.9;1970-01-01T00:00:00Z;;
46.068509;11.211213;437.7;1970-01-01T00:00:00Z;;
46.068617;11.211271;436.3;1970-01-01T00:00:00Z;;
46.068682;11.211343;435.7;1970-01-01T00:00:00Z;;
46.068804;11.211392;434.9;1970-01-01T00:00:00Z;;
46.068913;11.211386;434.4;1970-01-01T00:00:00Z;;
46.069268;11.211225;432.8;1970-01-01T00:00:00Z;;
46.069624;11.211164;431.7;1970-01-01T00:00:00Z;;
46.069926;11.211104;431.6;1970-01-01T00:00:00Z;;
46.070361;11.211002;430.9;1970-01-01T00:00:00Z;;
46.070896;11.210938;430.3;1970-01-01T00:00:00Z;;
46.070957;11.210862;430.2;1970-01-01T00:00:00Z;;
46.071027;11.210876;430.1;1970-01-01T00:00:00Z;;
46.071416;11.211105;429.6;1970-01-01T00:00:00Z;;
46.071489;11.21116;429.4;1970-01-01T00:00:00Z;;
46.071516;11.21124;429.4;1970-01-01T00:00:00Z;;
46.071562;11.211302;429.5;1970-01-01T00:00:00Z;;
46.071566;11.211287;429.4;1970-01-01T00:00:00Z;;
46.071763;11.210608;428.3;1970-01-01T00:00:00Z;;
46.072183;11.209383;423.6;1970-01-01T00:00:00Z;;
46.072545;11.20835;423.7;1970-01-01T00:00:00Z;;
46.072754;11.207777;422.6;1970-01-01T00:00:00Z;;
46.073187;11.206798;420.2;1970-01-01T00:00:00Z;;
46.074105;11.204934;415.7;1970-01-01T00:00:00Z;;
46.074937;11.203325;411.9;1970-01-01T00:00:00Z;;
46.07513;11.2031;411.9;1970-01-01T00:00:00Z;;
46.075234;11.202845;411.7;1970-01-01T00:00:00Z;;
46.075433;11.202336;413.0;1970-01-01T00:00:00Z;;
46.075715;11.201739;413.7;1970-01-01T00:00:00Z;;
46.075941;11.201155;413.1;1970-01-01T00:00:00Z;;
46.07609;11.200474;412.7;1970-01-01T00:00:00Z;;
46.076239;11.199743;411.8;1970-01-01T00:00:00Z;;
46.076406;11.199098;413.0;1970-01-01T00:00:00Z;;
46.076417;11.198921;413.5;1970-01-01T00:00:00Z;;
46.076477;11.198627;415.1;1970-01-01T00:00:00Z;;
46.076601;11.198244;417.6;1970-01-01T00:00:00Z;;
46.07676;11.19794;417.0;1970-01-01T00:00:00Z;;
46.076925;11.197778;416.4;1970-01-01T00:00:00Z;;
46.077034;11.197744;414.5;1970-01-01T00:00:00Z;;
46.077116;11.197682;414.5;1970-01-01T00:00:00Z;;
46.077318;11.197457;416.2;1970-01-01T00:00:00Z;;
46.077484;11.197244;415.9;1970-01-01T00:00:00Z;;
46.077604;11.197107;414.2;1970-01-01T00:00:00Z;;
46.077696;11.197019;412.4;1970-01-01T00:00:00Z;;
46.0778;11.196752;412.1;1970-01-01T00:00:00Z;;
46.077914;11.196421;410.7;1970-01-01T00:00:00Z;;
46.077969;11.196358;411.1;1970-01-01T00:00:00Z;;
46.078158;11.196401;411.0;1970-01-01T00:00:00Z;;
46.078417;11.196491;411.0;1970-01-01T00:00:00Z;;
46.078668;11.19663;411.3;1970-01-01T00:00:00Z;;
46.078927;11.196742;412.8;1970-01-01T00:00:00Z;;
46.079038;11.196785;413.7;1970-01-01T00:00:00Z;;
46.079345;11.19694;416.0;1970-01-01T00:00:00Z;;
46.079537;11.197052;417.6;1970-01-01T00:00:00Z;;
46.079671;11.197095;417.8;1970-01-01T00:00:00Z;;
46.079918;11.197266;417.3;1970-01-01T00:00:00Z;;
46.080049;11.197406;417.1;1970-01-01T00:00:00Z;;
46.080232;11.197663;416.6;1970-01-01T00:00:00Z;;
46.080335;11.197747;416.3;1970-01-01T00:00:00Z;;
46.080398;11.197699;416.1;1970-01-01T00:00:00Z;;
46.080466;11.197608;415.6;1970-01-01T00:00:00Z;;
46.080542;11.19734;414.9;1970-01-01T00:00:00Z;;
46.080639;11.197033;413.7;1970-01-01T00:00:00Z;;
46.08076;11.196792;410.9;1970-01-01T00:00:00Z;;
46.080953;11.196593;408.3;1970-01-01T00:00:00Z;;
46.081082;11.196443;406.7;1970-01-01T00:00:00Z;;
46.081211;11.196267;405.2;1970-01-01T00:00:00Z;;
46.081314;11.196051;403.8;1970-01-01T00:00:00Z;;
46.081347;11.195755;402.1;1970-01-01T00:00:00Z;;
46.081332;11.195146;398.3;1970-01-01T00:00:00Z;;
46.081333;11.194616;394.7;1970-01-01T00:00:00Z;;
46.081322;11.194175;393.4;1970-01-01T00:00:00Z;;
46.081267;11.19385;392.3;1970-01-01T00:00:00Z;;
46.081256;11.193475;391.4;1970-01-01T00:00:00Z;;
46.081265;11.193023;390.3;1970-01-01T00:00:00Z;;
46.081274;11.192557;388.8;1970-01-01T00:00:00Z;;
46.081308;11.192171;387.5;1970-01-01T00:00:00Z;;
46.081384;11.191941;387.1;1970-01-01T00:00:00Z;;
46.081505;11.191765;387.0;1970-01-01T00:00:00Z;;
46.081579;11.191651;386.9;1970-01-01T00:00:00Z;;
46.081608;11.191549;386.7;1970-01-01T00:00:00Z;;
46.081603;11.191329;386.2;1970-01-01T00:00:00Z;;
46.081682;11.19097;386.5;1970-01-01T00:00:00Z;;
46.081758;11.190766;386.6;1970-01-01T00:00:00Z;;
46.081789;11.190573;386.6;1970-01-01T00:00:00Z;;
46.081757;11.190339;387.0;1970-01-01T00:00:00Z;;
46.081762;11.190106;387.1;1970-01-01T00:00:00Z;;
46.081821;11.189837;386.8;1970-01-01T00:00:00Z;;
46.081861;11.189632;386.6;1970-01-01T00:00:00Z;;
46.081864;11.189454;386.3;1970-01-01T00:00:00Z;;
46.081879;11.189296;385.8;1970-01-01T00:00:00Z;;
46.081886;11.189083;385.3;1970-01-01T00:00:00Z;;
46.081893;11.188936;384.9;1970-01-01T00:00:00Z;;
46.081927;11.188783;384.4;1970-01-01T00:00:00Z;;
46.081987;11.188658;384.0;1970-01-01T00:00:00Z;;
46.082059;11.188565;383.6;1970-01-01T00:00:00Z;;
46.082104;11.188489;383.6;1970-01-01T00:00:00Z;;
46.082134;11.188429;383.9;1970-01-01T00:00:00Z;;
46.082137;11.188347;383.8;1970-01-01T00:00:00Z;;
46.082118;11.188254;383.3;1970-01-01T00:00:00Z;;
46.082077;11.188161;382.6;1970-01-01T00:00:00Z;;
46.082013;11.188057;382.4;1970-01-01T00:00:00Z;;
46.081959;11.187894;382.2;1970-01-01T00:00:00Z;;
46.081864;11.187498;383.5;1970-01-01T00:00:00Z;;
46.081753;11.187065;385.3;1970-01-01T00:00:00Z;;
46.081667;11.18661;389.5;1970-01-01T00:00:00Z;;
46.081647;11.186247;392.9;1970-01-01T00:00:00Z;;
46.081633;11.185988;397.1;1970-01-01T00:00:00Z;;
46.081575;11.185727;403.0;1970-01-01T00:00:00Z;;
46.081561;11.185533;406.9;1970-01-01T00:00:00Z;;
46.081564;11.185365;410.4;1970-01-01T00:00:00Z;;
46.081621;11.18525;411.3;1970-01-01T00:00:00Z;;
46.081721;11.185151;409.1;1970-01-01T00:00:00Z;;
46.081804;11.185051;407.2;1970-01-01T00:00:00Z;;
46.081889;11.184847;406.9;1970-01-01T00:00:00Z;;
46.082019;11.184529;404.5;1970-01-01T00:00:00Z;;
46.082126;11.184299;403.5;1970-01-01T00:00:00Z;;
46.082247;11.184008;404.9;1970-01-01T00:00:00Z;;
46.08233;11.183934;403.2;1970-01-01T00:00:00Z;;
46.082432;11.183756;401.6;1970-01-01T00:00:00Z;;
46.082555;11.183464;395.7;1970-01-01T00:00:00Z;;
46.082697;11.183139;388.7;1970-01-01T00:00:00Z;;
46.08276;11.183024;385.7;1970-01-01T00:00:00Z;;
46.08281;11.182935;383.3;1970-01-01T00:00:00Z;;
46.082864;11.182859;381.0;1970-01-01T00:00:00Z;;
46.08289;11.182773;380.0;1970-01-01T00:00:00Z;;
46.082892;11.182646;379.9;1970-01-01T00:00:00Z;;
46.082874;11.182521;380.4;1970-01-01T00:00:00Z;;
46.082841;11.182326;381.4;1970-01-01T00:00:00Z;;
46.0828;11.182153;382.3;1970-01-01T00:00:00Z;;
46.082782;11.18197;382.9;1970-01-01T00:00:00Z;;
46.082764;11.181771;383.7;1970-01-01T00:00:00Z;;
46.082763;11.181547;384.0;1970-01-01T00:00:00Z;;
46.082743;11.181064;384.1;1970-01-01T00:00:00Z;;
46.082716;11.180787;383.6;1970-01-01T00:00:00Z;;
46.082724;11.18044;382.4;1970-01-01T00:00:00Z;;
46.08277;11.179907;383.9;1970-01-01T00:00:00Z;;
46.082814;11.179352;383.1;1970-01-01T00:00:00Z;;
46.082827;11.178958;381.2;1970-01-01T00:00:00Z;;
46.08284;11.178405;378.6;1970-01-01T00:00:00Z;;
46.082835;11.177755;377.0;1970-01-01T00:00:00Z;;
46.082775;11.177395;378.7;1970-01-01T00:00:00Z;;
46.082695;11.17704;380.9;1970-01-01T00:00:00Z;;
46.082703;11.176792;384.8;1970-01-01T00:00:00Z;;
46.082719;11.176564;388.6;1970-01-01T00:00:00Z;;
46.082743;11.176426;391.2;1970-01-01T00:00:00Z;;
46.082705;11.176331;392.4;1970-01-01T00:00:00Z;;
46.082661;11.176271;392.7;1970-01-01T00:00:00Z;;
46.082585;11.176253;391.8;1970-01-01T00:00:00Z;;
46.082516;11.176238;391.1;1970-01-01T00:00:00Z;;
46.082449;11.176189;391.2;1970-01-01T00:00:00Z;;
46.082377;11.1761;391.5;1970-01-01T00:00:00Z;;
46.082299;11.175973;391.1;1970-01-01T00:00:00Z;;
46.08219;11.175791;388.2;1970-01-01T00:00:00Z;;
46.082132;11.17571;385.4;1970-01-01T00:00:00Z;;
46.082073;11.175667;383.3;1970-01-01T00:00:00Z;;
46.081996;11.175636;388.0;1970-01-01T00:00:00Z;;
46.08188;11.17558;394.7;1970-01-01T00:00:00Z;;
46.081773;11.175524;400.6;1970-01-01T00:00:00Z;;
46.081721;11.175465;403.0;1970-01-01T00:00:00Z;;
46.081704;11.175378;403.4;1970-01-01T00:00:00Z;;
46.081701;11.175275;403.7;1970-01-01T00:00:00Z;;
46.081721;11.175184;402.9;1970-01-01T00:00:00Z;;
46.081768;11.175032;401.7;1970-01-01T00:00:00Z;;
46.081796;11.174922;401.5;1970-01-01T00:00:00Z;;
46.081808;11.17481;402.0;1970-01-01T00:00:00Z;;
46.081808;11.174655;403.1;1970-01-01T00:00:00Z;;
46.081757;11.174305;399.0;1970-01-01T00:00:00Z;;
46.081723;11.174161;396.5;1970-01-01T00:00:00Z;;
46.081725;11.174039;394.3;1970-01-01T00:00:00Z;;
46.081728;11.173925;392.3;1970-01-01T00:00:00Z;;
46.081723;11.173805;390.1;1970-01-01T00:00:00Z;;
46.081702;11.173715;389.5;1970-01-01T00:00:00Z;;
46.081678;11.173647;390.0;1970-01-01T00:00:00Z;;
46.081472;11.173289;387.0;1970-01-01T00:00:00Z;;
46.081369;11.173093;382.0;1970-01-01T00:00:00Z;;
46.081328;11.173015;379.3;1970-01-01T00:00:00Z;;
46.081302;11.172932;377.0;1970-01-01T00:00:00Z;;
46.081288;11.172851;377.0;1970-01-01T00:00:00Z;;
46.081296;11.172771;378.6;1970-01-01T00:00:00Z;;
46.081317;11.172661;381.3;1970-01-01T00:00:00Z;;
46.081397;11.172477;388.5;1970-01-01T00:00:00Z;;
46.081488;11.172254;397.0;1970-01-01T00:00:00Z;;
46.081534;11.172121;401.8;1970-01-01T00:00:00Z;;
46.081567;11.172002;405.5;1970-01-01T00:00:00Z;;
46.081586;11.171909;408.0;1970-01-01T00:00:00Z;;
46.081592;11.171781;410.4;1970-01-01T00:00:00Z;;
46.081575;11.171664;411.1;1970-01-01T00:00:00Z;;
46.081544;11.171548;410.9;1970-01-01T00:00:00Z;;
46.081485;11.171392;409.5;1970-01-01T00:00:00Z;;
46.081415;11.171248;406.9;1970-01-01T00:00:00Z;;
46.081365;11.171119;404.2;1970-01-01T00:00:00Z;;
46.081343;11.171025;403.2;1970-01-01T00:00:00Z;;
46.081344;11.170913;403.8;1970-01-01T00:00:00Z;;
46.081325;11.170502;404.3;1970-01-01T00:00:00Z;;
46.081309;11.17022;403.5;1970-01-01T00:00:00Z;;
46.081263;11.169895;399.5;1970-01-01T00:00:00Z;;
46.081215;11.169573;401.0;1970-01-01T00:00:00Z;;
46.081173;11.169339;417.5;1970-01-01T00:00:00Z;;
46.081144;11.169134;430.4;1970-01-01T00:00:00Z;;
46.081113;11.169005;438.2;1970-01-01T00:00:00Z;;
46.081053;11.168859;446.5;1970-01-01T00:00:00Z;;
46.080969;11.168722;451.9;1970-01-01T00:00:00Z;;
46.080901;11.168568;452.9;1970-01-01T00:00:00Z;;
46.080865;11.168413;453.7;1970-01-01T00:00:00Z;;
46.080839;11.168253;454.5;1970-01-01T00:00:00Z;;
46.080842;11.168121;455.4;1970-01-01T00:00:00Z;;
46.080873;11.167981;456.6;1970-01-01T00:00:00Z;;
46.080937;11.167834;458.5;1970-01-01T00:00:00Z;;
46.081004;11.167691;460.5;1970-01-01T00:00:00Z;;
46.081054;11.16759;461.9;1970-01-01T00:00:00Z;;
46.081099;11.167444;463.6;1970-01-01T00:00:00Z;;
46.08113;11.167288;465.2;1970-01-01T00:00:00Z;;
46.08115;11.167132;466.6;1970-01-01T00:00:00Z;;
46.08115;11.166943;467.3;1970-01-01T00:00:00Z;;
46.081133;11.166783;467.5;1970-01-01T00:00:00Z;;
46.081108;11.166623;467.6;1970-01-01T00:00:00Z;;
46.08107;11.166422;467.6;1970-01-01T00:00:00Z;;
46.081056;11.166234;467.9;1970-01-01T00:00:00Z;;
46.081058;11.166044;467.5;1970-01-01T00:00:00Z;;
46.081074;11.165766;467.0;1970-01-01T00:00:00Z;;
46.081096;11.165537;466.8;1970-01-01T00:00:00Z;;
46.081109;11.165341;466.8;1970-01-01T00:00:00Z;;
46.081108;11.165184;466.7;1970-01-01T00:00:00Z;;
46.081079;11.165047;466.3;1970-01-01T00:00:00Z;;
46.081027;11.164895;465.8;1970-01-01T00:00:00Z;;
46.080969;11.164647;465.6;1970-01-01T00:00:00Z;;
46.080916;11.16447;464.5;1970-01-01T00:00:00Z;;
46.080863;11.164226;462.8;1970-01-01T00:00:00Z;;
46.080847;11.163966;461.2;1970-01-01T00:00:00Z;;
46.080837;11.163558;447.1;1970-01-01T00:00:00Z;;
46.08083;11.163187;422.1;1970-01-01T00:00:00Z;;
46.080823;11.16298;408.0;1970-01-01T00:00:00Z;;
46.080839;11.162801;400.4;1970-01-01T00:00:00Z;;
46.080872;11.16268;397.5;1970-01-01T00:00:00Z;;
46.080907;11.162536;394.3;1970-01-01T00:00:00Z;;
46.08093;11.162402;391.2;1970-01-01T00:00:00Z;;
46.080926;11.162272;387.1;1970-01-01T00:00:00Z;;
46.080893;11.16213;381.2;1970-01-01T00:00:00Z;;
46.080757;11.161774;378.1;1970-01-01T00:00:00Z;;
46.080531;11.161301;364.4;1970-01-01T00:00:00Z;;
46.08032;11.160996;370.7;1970-01-01T00:00:00Z;;
46.080134;11.160687;381.4;1970-01-01T00:00:00Z;;
46.079896;11.160226;379.3;1970-01-01T00:00:00Z;;
46.079516;11.159598;375.0;1970-01-01T00:00:00Z;;
46.079393;11.159425;375.5;1970-01-01T00:00:00Z;;
46.079244;11.159264;373.4;1970-01-01T00:00:00Z;;
46.078974;11.159048;365.2;1970-01-01T00:00:00Z;;
46.078673;11.158805;358.1;1970-01-01T00:00:00Z;;
46.078491;11.158588;361.5;1970-01-01T00:00:00Z;;
46.078325;11.15831;361.9;1970-01-01T00:00:00Z;;
46.078181;11.158034;358.6;1970-01-01T00:00:00Z;;
46.078074;11.157713;354.4;1970-01-01T00:00:00Z;;
46.078014;11.157461;351.6;1970-01-01T00:00:00Z;;
46.077891;11.15745;348.9;1970-01-01T00:00:00Z;;
46.077786;11.157319;352.5;1970-01-01T00:00:00Z;;
46.077672;11.157172;355.7;1970-01-01T00:00:00Z;;
46.077567;11.157;357.6;1970-01-01T00:00:00Z;;
46.077508;11.156817;357.2;1970-01-01T00:00:00Z;;
46.077476;11.156583;355.0;1970-01-01T00:00:00Z;;
46.077479;11.15644;353.0;1970-01-01T00:00:00Z;;
46.077499;11.156312;350.8;1970-01-01T00:00:00Z;;
46.077502;11.156144;349.4;1970-01-01T00:00:00Z;;
46.077535;11.155874;347.6;1970-01-01T00:00:00Z;;
46.077557;11.155655;346.5;1970-01-01T00:00:00Z;;
46.077552;11.155409;345.5;1970-01-01T00:00:00Z;;
46.077495;11.155096;347.0;1970-01-01T00:00:00Z;;
46.077409;11.154873;346.5;1970-01-01T00:00:00Z;;
46.077288;11.154635;343.8;1970-01-01T00:00:00Z;;
46.077129;11.154461;339.8;1970-01-01T00:00:00Z;;
46.076996;11.15434;339.3;1970-01-01T00:00:00Z;;
46.076722;11.154096;338.1;1970-01-01T00:00:00Z;;
46.07643;11.153839;331.2;1970-01-01T00:00:00Z;;
46.075729;11.152914;324.6;1970-01-01T00:00:00Z;;
46.075738;11.152774;325.0;1970-01-01T00:00:00Z;;
46.075756;11.152606;325.7;1970-01-01T00:00:00Z;;
46.07577;11.152501;326.2;1970-01-01T00:00:00Z;;
46.075698;11.152362;325.6;1970-01-01T00:00:00Z;;
46.075563;11.152217;323.0;1970-01-01T00:00:00Z;;
46.075389;11.152002;320.2;1970-01-01T00:00:00Z;;
46.075317;11.151926;322.0;1970-01-01T00:00:00Z;;
46.075288;11.151828;323.2;1970-01-01T00:00:00Z;;
46.075297;11.151737;323.7;1970-01-01T00:00:00Z;;
46.07534;11.151674;323.7;1970-01-01T00:00:00Z;;
46.075382;11.151583;324.1;1970-01-01T00:00:00Z;;
46.075386;11.151492;324.9;1970-01-01T00:00:00Z;;
46.075367;11.151401;325.8;1970-01-01T00:00:00Z;;
46.075307;11.151309;326.8;1970-01-01T00:00:00Z;;
46.075199;11.151138;329.8;1970-01-01T00:00:00Z;;
46.075131;11.151009;332.3;1970-01-01T00:00:00Z;;
46.075074;11.150876;334.7;1970-01-01T00:00:00Z;;
46.075013;11.150729;337.1;1970-01-01T00:00:00Z;;
46.074956;11.150628;338.6;1970-01-01T00:00:00Z;;
46.074874;11.150534;339.6;1970-01-01T00:00:00Z;;
46.074779;11.150453;340.1;1970-01-01T00:00:00Z;;
46.074671;11.15038;340.3;1970-01-01T00:00:00Z;;
46.074521;11.150331;340.9;1970-01-01T00:00:00Z;;
46.074366;11.150325;342.3;1970-01-01T00:00:00Z;;
46.074214;11.15034;343.5;1970-01-01T00:00:00Z;;
46.074094;11.150349;344.4;1970-01-01T00:00:00Z;;
46.073896;11.150469;345.0;1970-01-01T00:00:00Z;;
46.073672;11.150705;342.5;1970-01-01T00:00:00Z;;
46.073571;11.150793;340.4;1970-01-01T00:00:00Z;;
46.073482;11.150828;339.1;1970-01-01T00:00:00Z;;
46.07338;11.150828;338.0;1970-01-01T00:00:00Z;;
46.073274;11.150795;336.9;1970-01-01T00:00:00Z;;
46.073176;11.150751;335.7;1970-01-01T00:00:00Z;;
46.073034;11.150629;333.3;1970-01-01T00:00:00Z;;
46.072893;11.150481;330.1;1970-01-01T00:00:00Z;;
46.072769;11.150373;327.7;1970-01-01T00:00:00Z;;
46.072654;11.150278;326.0;1970-01-01T00:00:00Z;;
46.072573;11.150236;324.3;1970-01-01T00:00:00Z;;
46.072459;11.150102;321.8;1970-01-01T00:00:00Z;;
46.072372;11.149957;319.1;1970-01-01T00:00:00Z;;
46.072302;11.149812;316.4;1970-01-01T00:00:00Z;;
46.072208;11.149563;311.8;1970-01-01T00:00:00Z;;
46.072166;11.149418;312.2;1970-01-01T00:00:00Z;;
46.072096;11.149299;311.3;1970-01-01T00:00:00Z;;
46.072;11.14914;311.8;1970-01-01T00:00:00Z;;
46.071869;11.148941;310.8;1970-01-01T00:00:00Z;;
46.071756;11.148743;308.2;1970-01-01T00:00:00Z;;
46.071562;11.148477;301.6;1970-01-01T00:00:00Z;;
46.071475;11.148318;299.0;1970-01-01T00:00:00Z;;
46.071415;11.148174;297.3;1970-01-01T00:00:00Z;;
46.0714;11.148031;297.2;1970-01-01T00:00:00Z;;
46.071404;11.147824;297.4;1970-01-01T00:00:00Z;;
46.071392;11.147475;296.5;1970-01-01T00:00:00Z;;
46.071374;11.147034;295.0;1970-01-01T00:00:00Z;;
46.071345;11.146619;292.0;1970-01-01T00:00:00Z;;
46.071308;11.146217;288.8;1970-01-01T00:00:00Z;;
46.07127;11.145841;291.3;1970-01-01T00:00:00Z;;
46.071237;11.145684;292.1;1970-01-01T00:00:00Z;;
46.071169;11.145475;293.8;1970-01-01T00:00:00Z;;
46.071099;11.145355;293.6;1970-01-01T00:00:00Z;;
46.071012;11.14521;292.8;1970-01-01T00:00:00Z;;
46.070879;11.145075;290.8;1970-01-01T00:00:00Z;;
46.07072;11.144914;287.9;1970-01-01T00:00:00Z;;
46.070668;11.144847;286.7;1970-01-01T00:00:00Z;;
46.070624;11.144768;285.5;1970-01-01T00:00:00Z;;
46.070599;11.144677;284.5;1970-01-01T00:00:00Z;;
46.070592;11.144573;283.7;1970-01-01T00:00:00Z;;
46.070612;11.144444;283.1;1970-01-01T00:00:00Z;;
46.07065;11.144329;283.0;1970-01-01T00:00:00Z;;
46.070736;11.144061;283.1;1970-01-01T00:00:00Z;;
46.070831;11.143806;283.8;1970-01-01T00:00:00Z;;
46.07086;11.143691;284.3;1970-01-01T00:00:00Z;;
46.07089;11.14355;285.2;1970-01-01T00:00:00Z;;
46.070893;11.143408;285.3;1970-01-01T00:00:00Z;;
46.070878;11.143226;285.0;1970-01-01T00:00:00Z;;
46.070845;11.14307;284.2;1970-01-01T00:00:00Z;;
46.070785;11.142912;282.7;1970-01-01T00:00:00Z;;
46.070689;11.142727;280.5;1970-01-01T00:00:00Z;;
46.070568;11.142477;278.1;1970-01-01T00:00:00Z;;
46.070464;11.142253;276.4;1970-01-01T00:00:00Z;;
46.070361;11.142003;276.7;1970-01-01T00:00:00Z;;
46.070319;11.14186;276.9;1970-01-01T00:00:00Z;;
46.070278;11.141612;276.4;1970-01-01T00:00:00Z;;
46.070248;11.141327;275.4;1970-01-01T00:00:00Z;;
46.070244;11.141055;274.9;1970-01-01T00:00:00Z;;
46.070223;11.140718;274.6;1970-01-01T00:00:00Z;;
46.070201;11.140458;274.0;1970-01-01T00:00:00Z;;
46.070143;11.140198;273.1;1970-01-01T00:00:00Z;;
46.0701;11.14008;272.3;1970-01-01T00:00:00Z;;
46.070056;11.140026;271.5;1970-01-01T00:00:00Z;;
46.070003;11.139998;270.5;1970-01-01T00:00:00Z;;
45.966945;11.684696;219.9;1970-01-01T00:00:00Z;;
45.967358;11.684729;218.2;1970-01-01T00:00:00Z;;
45.967798;11.684789;219.2;1970-01-01T00:00:00Z;;
45.967967;11.684849;219.7;1970-01-01T00:00:00Z;;
45.968146;11.684922;219.9;1970-01-01T00:00:00Z;;
45.968332;11.685022;220.0;1970-01-01T00:00:00Z;;
45.968566;11.685046;220.0;1970-01-01T00:00:00Z;;
45.968919;11.684934;220.2;1970-01-01T00:00:00Z;;
45.969076;11.684786;220.4;1970-01-01T00:00:00Z;;
45.969285;11.68467;220.6;1970-01-01T00:00:00Z;;
45.969286;11.684668;220.6;1970-01-01T00:00:00Z;;
45.969319;11.684759;220.7;1970-01-01T00:00:00Z;;
45.969512;11.684976;220.9;1970-01-01T00:00:00Z;;
45.969634;11.685124;221.0;1970-01-01T00:00:00Z;;
45.969776;11.685223;220.9;1970-01-01T00:00:00Z;;
45.969975;11.685257;220.7;1970-01-01T00:00:00Z;;
45.970208;11.685201;220.6;1970-01-01T00:00:00Z;;
45.970431;11.685112;220.7;1970-01-01T00:00:00Z;;
45.970579;11.684957;220.9;1970-01-01T00:00:00Z;;
45.970682;11.68481;220.8;1970-01-01T00:00:00Z;;
45.97106;11.684624;219.7;1970-01-01T00:00:00Z;;
45.971205;11.684554;219.2;1970-01-01T00:00:00Z;;
45.971774;11.68413;219.9;1970-01-01T00:00:00Z;;
45.97214;11.68385;220.1;1970-01-01T00:00:00Z;;
45.972517;11.683533;219.8;1970-01-01T00:00:00Z;;
45.972874;11.683266;220.2;1970-01-01T00:00:00Z;;
45.973413;11.682918;222.2;1970-01-01T00:00:00Z;;
45.973778;11.682729;222.6;1970-01-01T00:00:00Z;;
45.974123;11.682565;222.6;1970-01-01T00:00:00Z;;
45.974425;11.68236;222.5;1970-01-01T00:00:00Z;;
45.974636;11.682202;222.4;1970-01-01T00:00:00Z;;
45.974967;11.681909;223.0;1970-01-01T00:00:00Z;;
45.975456;11.681403;224.9;1970-01-01T00:00:00Z;;
45.975926;11.680922;225.2;1970-01-01T00:00:00Z;;
45.976083;11.680762;225.2;1970-01-01T00:00:00Z;;
45.976241;11.68055;225.1;1970-01-01T00:00:00Z;;
45.976365;11.680259;225.1;1970-01-01T00:00:00Z;;
45.976426;11.679952;225.5;1970-01-01T00:00:00Z;;
45.976439;11.679385;227.1;1970-01-01T00:00:00Z;;
45.976442;11.678894;229.8;1970-01-01T00:00:00Z;;
45.976503;11.6786;231.4;1970-01-01T00:00:00Z;;
45.976597;11.678411;232.1;1970-01-01T00:00:00Z;;
45.976777;11.678033;232.9;1970-01-01T00:00:00Z;;
45.976921;11.677665;232.0;1970-01-01T00:00:00Z;;
45.977039;11.677245;229.4;1970-01-01T00:00:00Z;;
45.977096;11.676719;231.5;1970-01-01T00:00:00Z;;
45.977179;11.676232;235.8;1970-01-01T00:00:00Z;;
45.977202;11.676027;241.5;1970-01-01T00:00:00Z;;
45.977286;11.675902;244.4;1970-01-01T00:00:00Z;;
45.977416;11.675753;247.4;1970-01-01T00:00:00Z;;
45.977782;11.675486;251.4;1970-01-01T00:00:00Z;;
45.978066;11.675268;254.6;1970-01-01T00:00:00Z;;
45.978424;11.674949;257.4;1970-01-01T00:00:00Z;;
45.978755;11.674656;257.7;1970-01-01T00:00:00Z;;
45.978987;11.674396;258.9;1970-01-01T00:00:00Z;;
45.979072;11.674219;260.7;1970-01-01T00:00:00Z;;
45.979206;11.673864;263.4;1970-01-01T00:00:00Z;;
45.979338;11.673612;261.9;1970-01-01T00:00:00Z;;
45.979476;11.67349;257.1;1970-01-01T00:00:00Z;;
45.979613;11.673406;252.3;1970-01-01T00:00:00Z;;
45.979724;11.673269;252.4;1970-01-01T00:00:00Z;;
45.979809;11.67308;253.6;1970-01-01T00:00:00Z;;
45.980006;11.672741;255.1;1970-01-01T00:00:00Z;;
45.980156;11.672502;256.1;1970-01-01T00:00:00Z;;
45.980275;11.672392;254.5;1970-01-01T00:00:00Z;;
45.980495;11.67226;251.2;1970-01-01T00:00:00Z;;
45.980696;11.672115;250.8;1970-01-01T00:00:00Z;;
45.980907;11.671919;252.2;1970-01-01T00:00:00Z;;
45.98113;11.671646;253.9;1970-01-01T00:00:00Z;;
45.981446;11.671209;255.7;1970-01-01T00:00:00Z;;
45.981773;11.670721;260.2;1970-01-01T00:00:00Z;;
45.981912;11.670547;260.3;1970-01-01T00:00:00Z;;
45.982058;11.670438;258.3;1970-01-01T00:00:00Z;;
45.982659;11.670157;245.3;1970-01-01T00:00:00Z;;
45.983269;11.669838;239.7;1970-01-01T00:00:00Z;;
45.983552;11.669696;239.3;1970-01-01T00:00:00Z;;
45.983854;11.669479;240.3;1970-01-01T00:00:00Z;;
45.984074;11.669308;241.3;1970-01-01T00:00:00Z;;
45.984158;11.669158;242.5;1970-01-01T00:00:00Z;;
45.984274;11.668815;245.2;1970-01-01T00:00:00Z;;
45.984426;11.668486;248.6;1970-01-01T00:00:00Z;;
45.984616;11.668033;253.2;1970-01-01T00:00:00Z;;
45.984857;11.667758;255.0;1970-01-01T00:00:00Z;;
45.985058;11.667638;253.6;1970-01-01T00:00:00Z;;
45.985311;11.667586;249.3;1970-01-01T00:00:00Z;;
45.985509;11.667609;245.7;1970-01-01T00:00:00Z;;
45.985731;11.667697;242.0;1970-01-01T00:00:00Z;;
45.985893;11.667717;240.2;1970-01-01T00:00:00Z;;
45.986074;11.667674;239.3;1970-01-01T00:00:00Z;;
45.986408;11.667626;237.5;1970-01-01T00:00:00Z;;
45.986815;11.667568;235.6;1970-01-01T00:00:00Z;;
45.98705;11.667502;234.7;1970-01-01T00:00:00Z;;
45.987431;11.667391;234.4;1970-01-01T00:00:00Z;;
45.987686;11.667235;234.1;1970-01-01T00:00:00Z;;
45.987987;11.667082;232.8;1970-01-01T00:00:00Z;;
45.988233;11.666965;233.5;1970-01-01T00:00:00Z;;
45.988641;11.666842;232.9;1970-01-01T00:00:00Z;;
45.988724;11.666756;233.1;1970-01-01T00:00:00Z;;
45.988919;11.666481;234.0;1970-01-01T00:00:00Z;;
45.9892;11.666043;237.6;1970-01-01T00:00:00Z;;
45.989349;11.66583;240.4;1970-01-01T00:00:00Z;;
45.989399;11.665805;240.4;1970-01-01T00:00:00Z;;
45.989461;11.665877;238.7;1970-01-01T00:00:00Z;;
45.989786;11.666355;231.4;1970-01-01T00:00:00Z;;
45.989831;11.666396;231.2;1970-01-01T00:00:00Z;;
45.989887;11.666295;231.2;1970-01-01T00:00:00Z;;
45.990176;11.665844;235.2;1970-01-01T00:00:00Z;;
45.990671;11.665106;241.2;1970-01-01T00:00:00Z;;
45.990874;11.664871;241.1;1970-01-01T00:00:00Z;;
45.99112;11.66474;237.3;1970-01-01T00:00:00Z;;
45.99152;11.664566;234.2;1970-01-01T00:00:00Z;;
45.991901;11.664442;233.9;1970-01-01T00:00:00Z;;
45.992733;11.664276;233.4;1970-01-01T00:00:00Z;;
45.993963;11.664025;233.7;1970-01-01T00:00:00Z;;
45.994588;11.663874;231.9;1970-01-01T00:00:00Z;;
45.994814;11.663807;232.2;1970-01-01T00:00:00Z;;
45.995224;11.663581;233.8;1970-01-01T00:00:00Z;;
45.995479;11.663491;234.0;1970-01-01T00:00:00Z;;
45.995587;11.663483;234.0;1970-01-01T00:00:00Z;;
45.995652;11.663395;234.3;1970-01-01T00:00:00Z;;
45.995717;11.663282;234.6;1970-01-01T00:00:00Z;;
45.996363;11.662616;235.7;1970-01-01T00:00:00Z;;
45.997067;11.661759;235.4;1970-01-01T00:00:00Z;;
45.997533;11.661084;235.1;1970-01-01T00:00:00Z;;
45.99789;11.660416;236.0;1970-01-01T00:00:00Z;;
45.998147;11.659834;233.7;1970-01-01T00:00:00Z;;
45.998552;11.658692;232.8;1970-01-01T00:00:00Z;;
45.999264;11.656685;233.8;1970-01-01T00:00:00Z;;
46.000652;11.652761;236.0;1970-01-01T00:00:00Z;;
46.001934;11.64909;241.2;1970-01-01T00:00:00Z;;
46.002144;11.64857;242.0;1970-01-01T00:00:00Z;;
46.002455;11.647952;242.9;1970-01-01T00:00:00Z;;
46.002795;11.647297;243.3;1970-01-01T00:00:00Z;;
46.003196;11.646657;246.6;1970-01-01T00:00:00Z;;
46.004111;11.645241;246.3;1970-01-01T00:00:00Z;;
46.004518;11.644602;241.6;1970-01-01T00:00:00Z;;
46.004513;11.644615;241.7;1970-01-01T00:00:00Z;;
46.004106;11.643924;265.0;1970-01-01T00:00:00Z;;
46.004099;11.643833;267.1;1970-01-01T00:00:00Z;;
46.004265;11.643634;266.7;1970-01-01T00:00:00Z;;
46.004601;11.643121;272.0;1970-01-01T00:00:00Z;;
46.004837;11.642641;276.7;1970-01-01T00:00:00Z;;
46.005076;11.642058;281.2;1970-01-01T00:00:00Z;;
46.005184;11.64165;289.3;1970-01-01T00:00:00Z;;
46.005292;11.641281;295.6;1970-01-01T00:00:00Z;;
46.005483;11.640799;306.4;1970-01-01T00:00:00Z;;
46.005715;11.640487;303.5;1970-01-01T00:00:00Z;;
46.005854;11.640326;299.3;1970-01-01T00:00:00Z;;
46.006577;11.639805;276.9;1970-01-01T00:00:00Z;;
46.00677;11.639633;273.4;1970-01-01T00:00:00Z;;
46.007193;11.63924;264.5;1970-01-01T00:00:00Z;;
46.007633;11.638912;260.6;1970-01-01T00:00:00Z;;
46.007973;11.638593;257.6;1970-01-01T00:00:00Z;;
46.008094;11.638443;257.9;1970-01-01T00:00:00Z;;
46.008447;11.637969;256.7;1970-01-01T00:00:00Z;;
46.008616;11.637667;255.7;1970-01-01T00:00:00Z;;
46.008693;11.637451;255.6;1970-01-01T00:00:00Z;;
46.008708;11.637181;257.3;1970-01-01T00:00:00Z;;
46.008739;11.637002;257.7;1970-01-01T00:00:00Z;;
46.008817;11.63676;257.7;1970-01-01T00:00:00Z;;
46.008889;11.636363;258.5;1970-01-01T00:00:00Z;;
46.008953;11.635914;257.4;1970-01-01T00:00:00Z;;
46.008952;11.635565;256.9;1970-01-01T00:00:00Z;;
46.00896;11.634816;257.0;1970-01-01T00:00:00Z;;
46.00896;11.634467;256.7;1970-01-01T00:00:00Z;;
46.008903;11.634181;256.3;1970-01-01T00:00:00Z;;
46.008759;11.633812;256.3;1970-01-01T00:00:00Z;;
46.008638;11.633574;257.0;1970-01-01T00:00:00Z;;
46.008528;11.632884;253.8;1970-01-01T00:00:00Z;;
46.008328;11.631789;251.5;1970-01-01T00:00:00Z;;
46.008225;11.631177;250.3;1970-01-01T00:00:00Z;;
46.008221;11.630957;251.5;1970-01-01T00:00:00Z;;
46.008234;11.63079;252.4;1970-01-01T00:00:00Z;;
46.008329;11.630575;253.2;1970-01-01T00:00:00Z;;
46.008563;11.630186;252.9;1970-01-01T00:00:00Z;;
46.008695;11.629921;251.8;1970-01-01T00:00:00Z;;
46.00887;11.629361;253.8;1970-01-01T00:00:00Z;;
46.009063;11.628815;258.8;1970-01-01T00:00:00Z;;
46.009166;11.628652;258.7;1970-01-01T00:00:00Z;;
46.009261;11.628437;258.7;1970-01-01T00:00:00Z;;
46.009351;11.628028;259.8;1970-01-01T00:00:00Z;;
46.009608;11.627019;258.0;1970-01-01T00:00:00Z;;
46.009773;11.626497;257.7;1970-01-01T00:00:00Z;;
46.009813;11.626344;257.6;1970-01-01T00:00:00Z;;
46.009838;11.626022;256.2;1970-01-01T00:00:00Z;;
46.009826;11.625776;254.9;1970-01-01T00:00:00Z;;
46.009761;11.625463;253.4;1970-01-01T00:00:00Z;;
46.00961;11.625004;253.4;1970-01-01T00:00:00Z;;
46.009351;11.624126;263.9;1970-01-01T00:00:00Z;;
46.009286;11.623826;269.8;1970-01-01T00:00:00Z;;
46.009283;11.623542;272.1;1970-01-01T00:00:00Z;;
46.009343;11.623287;270.2;1970-01-01T00:00:00Z;;
46.009642;11.622409;258.4;1970-01-01T00:00:00Z;;
46.009908;11.621815;259.0;1970-01-01T00:00:00Z;;
46.009987;11.621508;260.2;1970-01-01T00:00:00Z;;
46.010037;11.621278;261.1;1970-01-01T00:00:00Z;;
46.010037;11.620891;263.0;1970-01-01T00:00:00Z;;
46.010021;11.620425;265.8;1970-01-01T00:00:00Z;;
46.009942;11.619956;276.4;1970-01-01T00:00:00Z;;
46.009846;11.619422;290.2;1970-01-01T00:00:00Z;;
46.009844;11.619099;295.2;1970-01-01T00:00:00Z;;
46.009879;11.618765;297.9;1970-01-01T00:00:00Z;;
46.009967;11.618446;297.5;1970-01-01T00:00:00Z;;
46.010034;11.618281;294.8;1970-01-01T00:00:00Z;;
46.01022;11.618032;281.6;1970-01-01T00:00:00Z;;
46.010332;11.617843;273.1;1970-01-01T00:00:00Z;;
46.010373;11.617638;271.8;1970-01-01T00:00:00Z;;
46.010422;11.617434;269.7;1970-01-01T00:00:00Z;;
46.010438;11.617138;272.7;1970-01-01T00:00:00Z;;
46.010411;11.616749;277.2;1970-01-01T00:00:00Z;;
46.01033;11.616358;292.6;1970-01-01T00:00:00Z;;
46.010247;11.616044;310.5;1970-01-01T00:00:00Z;;
46.010208;11.61581;320.7;1970-01-01T00:00:00Z;;
46.010204;11.61559;324.9;1970-01-01T00:00:00Z;;
46.010244;11.615372;319.8;1970-01-01T00:00:00Z;;
46.010349;11.615132;292.4;1970-01-01T00:00:00Z;;
46.010613;11.614627;255.3;1970-01-01T00:00:00Z;;
46.010673;11.614359;254.4;1970-01-01T00:00:00Z;;
46.010715;11.614102;255.2;1970-01-01T00:00:00Z;;
46.010725;11.613664;256.9;1970-01-01T00:00:00Z;;
46.010726;11.613199;259.5;1970-01-01T00:00:00Z;;
46.010716;11.612888;261.3;1970-01-01T00:00:00Z;;
46.010661;11.612498;262.6;1970-01-01T00:00:00Z;;
46.010638;11.612355;263.2;1970-01-01T00:00:00Z;;
46.010689;11.611699;265.2;1970-01-01T00:00:00Z;;
46.010757;11.611056;266.1;1970-01-01T00:00:00Z;;
46.010755;11.610759;265.6;1970-01-01T00:00:00Z;;
46.010717;11.610473;265.3;1970-01-01T00:00:00Z;;
46.01065;11.610237;266.7;1970-01-01T00:00:00Z;;
46.010585;11.60995;269.2;1970-01-01T00:00:00Z;;
46.010571;11.609768;270.7;1970-01-01T00:00:00Z;;
46.010611;11.609589;271.4;1970-01-01T00:00:00Z;;
46.010642;11.60941;278.4;1970-01-01T00:00:00Z;;
46.010666;11.609166;287.8;1970-01-01T00:00:00Z;;
46.010678;11.608611;304.2;1970-01-01T00:00:00Z;;
46.010702;11.608354;302.9;1970-01-01T00:00:00Z;;
46.01077;11.608137;298.6;1970-01-01T00:00:00Z;;
46.01092;11.607899;289.2;1970-01-01T00:00:00Z;;
46.011199;11.607499;272.2;1970-01-01T00:00:00Z;;
46.011413;11.607173;269.2;1970-01-01T00:00:00Z;;
46.011574;11.606844;270.6;1970-01-01T00:00:00Z;;
46.011661;11.60659;271.5;1970-01-01T00:00:00Z;;
46.011797;11.606132;271.5;1970-01-01T00:00:00Z;;
46.011944;11.605596;270.2;1970-01-01T00:00:00Z;;
46.012068;11.605305;268.0;1970-01-01T00:00:00Z;;
46.012349;11.604814;268.1;1970-01-01T00:00:00Z;;
46.012676;11.6043;265.5;1970-01-01T00:00:00Z;;
46.012751;11.604161;264.3;1970-01-01T00:00:00Z;;
46.012818;11.603971;262.7;1970-01-01T00:00:00Z;;
46.012932;11.603731;260.3;1970-01-01T00:00:00Z;;
46.01299;11.603526;262.4;1970-01-01T00:00:00Z;;
46.013062;11.603168;265.3;1970-01-01T00:00:00Z;;
46.013129;11.602965;266.4;1970-01-01T00:00:00Z;;
46.013241;11.602789;267.2;1970-01-01T00:00:00Z;;
46.013572;11.602507;265.7;1970-01-01T00:00:00Z;;
46.013838;11.602262;263.7;1970-01-01T00:00:00Z;;
46.013903;11.602161;263.7;1970-01-01T00:00:00Z;;
46.014008;11.601921;264.5;1970-01-01T00:00:00Z;;
46.014105;11.601615;265.4;1970-01-01T00:00:00Z;;
46.014241;11.60117;265.6;1970-01-01T00:00:00Z;;
46.014385;11.600789;265.1;1970-01-01T00:00:00Z;;
46.014593;11.600359;262.2;1970-01-01T00:00:00Z;;
46.014697;11.600119;262.8;1970-01-01T00:00:00Z;;
46.014766;11.599864;263.3;1970-01-01T00:00:00Z;;
46.014816;11.59962;263.7;1970-01-01T00:00:00Z;;
46.014894;11.599366;263.9;1970-01-01T00:00:00Z;;
46.015158;11.598849;262.9;1970-01-01T00:00:00Z;;
46.015233;11.598723;262.4;1970-01-01T00:00:00Z;;
46.015538;11.598363;262.5;1970-01-01T00:00:00Z;;
46.016232;11.597529;261.1;1970-01-01T00:00:00Z;;
46.016538;11.59713;262.2;1970-01-01T00:00:00Z;;
46.016697;11.596892;263.0;1970-01-01T00:00:00Z;;
46.016745;11.596727;263.4;1970-01-01T00:00:00Z;;
46.016759;11.596508;263.8;1970-01-01T00:00:00Z;;
46.016798;11.595618;267.6;1970-01-01T00:00:00Z;;
46.016834;11.595581;267.8;1970-01-01T00:00:00Z;;
46.017045;11.595423;268.1;1970-01-01T00:00:00Z;;
46.017139;11.595272;268.2;1970-01-01T00:00:00Z;;
46.017237;11.594902;268.8;1970-01-01T00:00:00Z;;
46.017316;11.594583;269.2;1970-01-01T00:00:00Z;;
46.017393;11.594367;269.6;1970-01-01T00:00:00Z;;
46.017428;11.594007;270.7;1970-01-01T00:00:00Z;;
46.017426;11.593723;271.6;1970-01-01T00:00:00Z;;
46.017443;11.593349;272.5;1970-01-01T00:00:00Z;;
46.01751;11.592796;273.7;1970-01-01T00:00:00Z;;
46.017565;11.592334;276.3;1970-01-01T00:00:00Z;;
46.017552;11.592139;277.9;1970-01-01T00:00:00Z;;
46.017499;11.591698;281.3;1970-01-01T00:00:00Z;;
46.017482;11.591258;284.4;1970-01-01T00:00:00Z;;
46.017433;11.590248;290.2;1970-01-01T00:00:00Z;;
46.017406;11.58942;296.9;1970-01-01T00:00:00Z;;
46.01737;11.589043;302.4;1970-01-01T00:00:00Z;;
46.017336;11.588551;311.4;1970-01-01T00:00:00Z;;
46.01737;11.588255;315.6;1970-01-01T00:00:00Z;;
46.017508;11.587732;320.5;1970-01-01T00:00:00Z;;
46.017586;11.587464;324.5;1970-01-01T00:00:00Z;;
46.017945;11.586693;329.4;1970-01-01T00:00:00Z;;
46.018333;11.585884;333.4;1970-01-01T00:00:00Z;;
46.018447;11.585593;334.9;1970-01-01T00:00:00Z;;
46.018655;11.585163;333.7;1970-01-01T00:00:00Z;;
46.018789;11.584808;335.0;1970-01-01T00:00:00Z;;
46.018906;11.5844;337.0;1970-01-01T00:00:00Z;;
46.01899;11.583861;342.7;1970-01-01T00:00:00Z;;
46.019111;11.58291;342.5;1970-01-01T00:00:00Z;;
46.019167;11.582396;347.8;1970-01-01T00:00:00Z;;
46.019314;11.581912;340.9;1970-01-01T00:00:00Z;;
46.019557;11.581109;325.3;1970-01-01T00:00:00Z;;
46.019667;11.580624;327.2;1970-01-01T00:00:00Z;;
46.019749;11.580175;333.0;1970-01-01T00:00:00Z;;
46.019847;11.579792;336.9;1970-01-01T00:00:00Z;;
46.020084;11.579287;336.6;1970-01-01T00:00:00Z;;
46.020291;11.57887;332.1;1970-01-01T00:00:00Z;;
46.020405;11.578604;330.8;1970-01-01T00:00:00Z;;
46.021276;11.577107;318.0;1970-01-01T00:00:00Z;;
46.02146;11.576948;315.7;1970-01-01T00:00:00Z;;
46.021983;11.576494;297.1;1970-01-01T00:00:00Z;;
46.022076;11.576343;292.9;1970-01-01T00:00:00Z;;
46.022125;11.576203;295.5;1970-01-01T00:00:00Z;;
46.022164;11.576063;300.1;1970-01-01T00:00:00Z;;
46.022276;11.575874;304.9;1970-01-01T00:00:00Z;;
46.022459;11.575741;305.6;1970-01-01T00:00:00Z;;
46.022544;11.575577;307.7;1970-01-01T00:00:00Z;;
46.022608;11.575502;307.8;1970-01-01T00:00:00Z;;
46.023046;11.575251;301.2;1970-01-01T00:00:00Z;;
46.023093;11.575189;301.2;1970-01-01T00:00:00Z;;
46.023197;11.574948;302.2;1970-01-01T00:00:00Z;;
46.02342;11.574222;305.6;1970-01-01T00:00:00Z;;
46.023672;11.57342;301.6;1970-01-01T00:00:00Z;;
46.023845;11.572937;296.3;1970-01-01T00:00:00Z;;
46.024044;11.57252;306.2;1970-01-01T00:00:00Z;;
46.024257;11.572245;305.6;1970-01-01T00:00:00Z;;
46.024699;11.571801;299.5;1970-01-01T00:00:00Z;;
46.024923;11.571423;306.0;1970-01-01T00:00:00Z;;
46.025106;11.57129;305.0;1970-01-01T00:00:00Z;;
46.02548;11.571087;300.3;1970-01-01T00:00:00Z;;
46.02579;11.570895;300.6;1970-01-01T00:00:00Z;;
46.026356;11.570572;299.9;1970-01-01T00:00:00Z;;
46.026693;11.570381;303.6;1970-01-01T00:00:00Z;;
46.027329;11.570114;306.7;1970-01-01T00:00:00Z;;
46.027528;11.570084;305.5;1970-01-01T00:00:00Z;;
46.027689;11.570105;303.9;1970-01-01T00:00:00Z;;
46.027698;11.570105;303.9;1970-01-01T00:00:00Z;;
46.02784;11.570202;301.5;1970-01-01T00:00:00Z;;
46.027989;11.570364;298.5;1970-01-01T00:00:00Z;;
46.028279;11.5707;294.2;1970-01-01T00:00:00Z;;
46.028306;11.570702;294.1;1970-01-01T00:00:00Z;;
46.028532;11.570634;294.4;1970-01-01T00:00:00Z;;
46.028698;11.5705;295.3;1970-01-01T00:00:00Z;;
46.028829;11.570261;296.3;1970-01-01T00:00:00Z;;
46.029138;11.569706;296.6;1970-01-01T00:00:00Z;;
46.029353;11.569367;297.2;1970-01-01T00:00:00Z;;
46.029562;11.568861;299.3;1970-01-01T00:00:00Z;;
46.029745;11.568326;299.1;1970-01-01T00:00:00Z;;
46.029795;11.568122;298.9;1970-01-01T00:00:00Z;;
46.02989;11.56748;296.7;1970-01-01T00:00:00Z;;
46.029927;11.567068;295.4;1970-01-01T00:00:00Z;;
46.030013;11.566827;295.9;1970-01-01T00:00:00Z;;
46.03007;11.566726;296.0;1970-01-01T00:00:00Z;;
46.030426;11.566885;291.4;1970-01-01T00:00:00Z;;
46.030489;11.566875;291.2;1970-01-01T00:00:00Z;;
46.030531;11.566618;292.6;1970-01-01T00:00:00Z;;
46.030652;11.565629;294.5;1970-01-01T00:00:00Z;;
46.030827;11.564267;294.5;1970-01-01T00:00:00Z;;
46.03097;11.563486;295.6;1970-01-01T00:00:00Z;;
46.031047;11.563269;296.1;1970-01-01T00:00:00Z;;
46.03107;11.563064;297.3;1970-01-01T00:00:00Z;;
46.031138;11.562821;298.1;1970-01-01T00:00:00Z;;
46.031292;11.562389;298.0;1970-01-01T00:00:00Z;;
46.031453;11.562034;298.1;1970-01-01T00:00:00Z;;
46.031904;11.561202;299.4;1970-01-01T00:00:00Z;;
46.032213;11.560661;299.8;1970-01-01T00:00:00Z;;
46.032477;11.560518;297.5;1970-01-01T00:00:00Z;;
46.032486;11.560506;297.4;1970-01-01T00:00:00Z;;
46.032797;11.5603;294.0;1970-01-01T00:00:00Z;;
46.032915;11.560241;292.4;1970-01-01T00:00:00Z;;
46.033042;11.560183;292.9;1970-01-01T00:00:00Z;;
46.03308;11.56012;293.1;1970-01-01T00:00:00Z;;
46.033128;11.55998;293.6;1970-01-01T00:00:00Z;;
46.03321;11.559919;293.9;1970-01-01T00:00:00Z;;
46.033331;11.55977;294.5;1970-01-01T00:00:00Z;;
46.033407;11.559566;295.2;1970-01-01T00:00:00Z;;
46.033528;11.559391;295.8;1970-01-01T00:00:00Z;;
46.033728;11.55931;296.0;1970-01-01T00:00:00Z;;
46.033946;11.559216;296.6;1970-01-01T00:00:00Z;;
46.034085;11.559068;297.1;1970-01-01T00:00:00Z;;
46.034281;11.558715;297.9;1970-01-01T00:00:00Z;;
46.034379;11.558371;298.5;1970-01-01T00:00:00Z;;
46.034469;11.557974;298.8;1970-01-01T00:00:00Z;;
46.034533;11.557512;301.6;1970-01-01T00:00:00Z;;
46.0346;11.557347;302.3;1970-01-01T00:00:00Z;;
46.034748;11.55716;302.6;1970-01-01T00:00:00Z;;
46.034976;11.557028;302.2;1970-01-01T00:00:00Z;;
46.035204;11.556897;301.6;1970-01-01T00:00:00Z;;
46.035442;11.556714;300.7;1970-01-01T00:00:00Z;;
46.035709;11.556455;300.6;1970-01-01T00:00:00Z;;
46.036096;11.556072;300.5;1970-01-01T00:00:00Z;;
46.036363;11.5558;300.3;1970-01-01T00:00:00Z;;
46.036603;11.555514;300.5;1970-01-01T00:00:00Z;;
46.036872;11.555152;301.2;1970-01-01T00:00:00Z;;
46.037142;11.554763;302.0;1970-01-01T00:00:00Z;;
46.037253;11.554652;302.1;1970-01-01T00:00:00Z;;
46.037327;11.554526;302.4;1970-01-01T00:00:00Z;;
46.037466;11.554365;302.5;1970-01-01T00:00:00Z;;
46.037596;11.554164;302.4;1970-01-01T00:00:00Z;;
46.037782;11.553914;301.8;1970-01-01T00:00:00Z;;
46.03796;11.553625;301.2;1970-01-01T00:00:00Z;;
46.038184;11.553273;301.5;1970-01-01T00:00:00Z;;
46.038352;11.552984;301.4;1970-01-01T00:00:00Z;;
46.038568;11.552567;301.8;1970-01-01T00:00:00Z;;
46.038822;11.552062;302.0;1970-01-01T00:00:00Z;;
46.039068;11.551544;302.2;1970-01-01T00:00:00Z;;
46.03923;11.55115;302.0;1970-01-01T00:00:00Z;;
46.039364;11.550808;302.3;1970-01-01T00:00:00Z;;
46.039536;11.550337;302.3;1970-01-01T00:00:00Z;;
46.03972;11.549777;302.0;1970-01-01T00:00:00Z;;
46.039915;11.549075;304.4;1970-01-01T00:00:00Z;;
46.040044;11.548564;305.8;1970-01-01T00:00:00Z;;
46.040083;11.548437;306.0;1970-01-01T00:00:00Z;;
46.040263;11.547618;307.2;1970-01-01T00:00:00Z;;
46.040444;11.54676;307.3;1970-01-01T00:00:00Z;;
46.04068;11.545479;305.4;1970-01-01T00:00:00Z;;
46.041067;11.543454;312.0;1970-01-01T00:00:00Z;;
46.041331;11.542109;312.7;1970-01-01T00:00:00Z;;
46.041506;11.541084;313.6;1970-01-01T00:00:00Z;;
46.041597;11.540273;313.0;1970-01-01T00:00:00Z;;
46.041677;11.539502;315.5;1970-01-01T00:00:00Z;;
46.041808;11.538874;315.2;1970-01-01T00:00:00Z;;
46.042098;11.53797;314.8;1970-01-01T00:00:00Z;;
46.04254;11.536711;316.3;1970-01-01T00:00:00Z;;
46.04316;11.535123;316.1;1970-01-01T00:00:00Z;;
46.043219;11.534919;315.9;1970-01-01T00:00:00Z;;
46.043277;11.534702;315.8;1970-01-01T00:00:00Z;;
46.043372;11.534512;315.4;1970-01-01T00:00:00Z;;
46.043478;11.534168;315.5;1970-01-01T00:00:00Z;;
46.043593;11.533877;315.5;1970-01-01T00:00:00Z;;
46.043663;11.533544;315.5;1970-01-01T00:00:00Z;;
46.044067;11.532373;319.0;1970-01-01T00:00:00Z;;
46.044451;11.531292;319.7;1970-01-01T00:00:00Z;;
46.044797;11.530313;320.1;1970-01-01T00:00:00Z;;
46.045151;11.529346;321.4;1970-01-01T00:00:00Z;;
46.045401;11.528621;320.1;1970-01-01T00:00:00Z;;
46.045528;11.528187;320.4;1970-01-01T00:00:00Z;;
46.045615;11.527894;320.8;1970-01-01T00:00:00Z;;
46.045754;11.527319;322.1;1970-01-01T00:00:00Z;;
46.045868;11.526665;323.7;1970-01-01T00:00:00Z;;
46.045898;11.526498;324.1;1970-01-01T00:00:00Z;;
46.045993;11.52627;324.2;1970-01-01T00:00:00Z;;
46.045994;11.526231;324.2;1970-01-01T00:00:00Z;;
46.045963;11.526036;324.6;1970-01-01T00:00:00Z;;
46.04595;11.525789;324.9;1970-01-01T00:00:00Z;;
46.045969;11.524924;326.6;1970-01-01T00:00:00Z;;
46.045953;11.524445;328.0;1970-01-01T00:00:00Z;;
46.045895;11.523796;328.8;1970-01-01T00:00:00Z;;
46.045819;11.523172;328.9;1970-01-01T00:00:00Z;;
46.045759;11.522601;329.9;1970-01-01T00:00:00Z;;
46.045737;11.521967;331.5;1970-01-01T00:00:00Z;;
46.045731;11.521462;332.3;1970-01-01T00:00:00Z;;
46.04575;11.520998;332.3;1970-01-01T00:00:00Z;;
46.045771;11.520857;332.0;1970-01-01T00:00:00Z;;
46.04581;11.520716;331.7;1970-01-01T00:00:00Z;;
46.045813;11.520587;331.6;1970-01-01T00:00:00Z;;
46.045837;11.52033;331.3;1970-01-01T00:00:00Z;;
46.045895;11.520126;330.7;1970-01-01T00:00:00Z;;
46.046;11.519872;329.9;1970-01-01T00:00:00Z;;
46.046102;11.519721;329.4;1970-01-01T00:00:00Z;;
46.046267;11.5196;329.1;1970-01-01T00:00:00Z;;
46.046412;11.519542;329.8;1970-01-01T00:00:00Z;;
46.046593;11.519511;330.6;1970-01-01T00:00:00Z;;
46.046808;11.519534;331.6;1970-01-01T00:00:00Z;;
46.047049;11.519622;332.9;1970-01-01T00:00:00Z;;
46.047166;11.519641;333.6;1970-01-01T00:00:00Z;;
46.047283;11.519633;334.3;1970-01-01T00:00:00Z;;
46.047329;11.519609;334.5;1970-01-01T00:00:00Z;;
46.047349;11.519507;334.4;1970-01-01T00:00:00Z;;
46.04737;11.518952;333.2;1970-01-01T00:00:00Z;;
46.047353;11.518912;333.0;1970-01-01T00:00:00Z;;
46.047353;11.518912;333.0;1970-01-01T00:00:00Z;;
46.047353;11.518912;333.0;1970-01-01T00:00:00Z;;
46.047318;11.518872;332.8;1970-01-01T00:00:00Z;;
46.047228;11.518855;332.5;1970-01-01T00:00:00Z;;
46.047021;11.518846;331.9;1970-01-01T00:00:00Z;;
46.046707;11.518792;330.7;1970-01-01T00:00:00Z;;
46.046404;11.518675;329.8;1970-01-01T00:00:00Z;;
46.046182;11.518562;329.8;1970-01-01T00:00:00Z;;
46.046076;11.518441;330.4;1970-01-01T00:00:00Z;;
46.046007;11.518321;330.7;1970-01-01T00:00:00Z;;
46.045972;11.518242;330.8;1970-01-01T00:00:00Z;;
46.045933;11.518007;331.1;1970-01-01T00:00:00Z;;
46.045928;11.517813;331.3;1970-01-01T00:00:00Z;;
46.045925;11.517529;331.4;1970-01-01T00:00:00Z;;
46.045919;11.517412;331.5;1970-01-01T00:00:00Z;;
46.045834;11.517189;331.0;1970-01-01T00:00:00Z;;
46.045768;11.516889;330.4;1970-01-01T00:00:00Z;;
46.045687;11.516484;329.7;1970-01-01T00:00:00Z;;
46.045571;11.516065;329.3;1970-01-01T00:00:00Z;;
46.045453;11.515672;329.5;1970-01-01T00:00:00Z;;
46.045404;11.515476;330.0;1970-01-01T00:00:00Z;;
46.045381;11.515268;330.8;1970-01-01T00:00:00Z;;
46.045386;11.515049;331.3;1970-01-01T00:00:00Z;;
46.045426;11.514856;331.4;1970-01-01T00:00:00Z;;
46.045478;11.514549;332.2;1970-01-01T00:00:00Z;;
46.045517;11.514395;332.7;1970-01-01T00:00:00Z;;
46.045594;11.514192;333.3;1970-01-01T00:00:00Z;;
46.045642;11.514065;333.6;1970-01-01T00:00:00Z;;
46.045689;11.513976;333.9;1970-01-01T00:00:00Z;;
46.045699;11.513925;334.0;1970-01-01T00:00:00Z;;
46.045673;11.513872;334.1;1970-01-01T00:00:00Z;;
46.045602;11.51383;334.1;1970-01-01T00:00:00Z;;
46.045495;11.513761;334.1;1970-01-01T00:00:00Z;;
46.045336;11.51365;334.7;1970-01-01T00:00:00Z;;
46.045282;11.513635;335.1;1970-01-01T00:00:00Z;;
46.045257;11.513569;335.3;1970-01-01T00:00:00Z;;
46.045304;11.513442;335.1;1970-01-01T00:00:00Z;;
46.045379;11.513316;334.7;1970-01-01T00:00:00Z;;
46.045537;11.513104;334.9;1970-01-01T00:00:00Z;;
46.04563;11.512979;335.2;1970-01-01T00:00:00Z;;
46.045657;11.512941;335.3;1970-01-01T00:00:00Z;;
46.045759;11.512829;335.7;1970-01-01T00:00:00Z;;
46.045841;11.512755;335.9;1970-01-01T00:00:00Z;;
46.045889;11.512667;336.1;1970-01-01T00:00:00Z;;
46.045926;11.512591;336.2;1970-01-01T00:00:00Z;;
46.045939;11.512424;336.5;1970-01-01T00:00:00Z;;
46.045933;11.512256;336.8;1970-01-01T00:00:00Z;;
46.04592;11.512074;337.2;1970-01-01T00:00:00Z;;
46.045933;11.511855;336.8;1970-01-01T00:00:00Z;;
46.045938;11.511648;336.4;1970-01-01T00:00:00Z;;
46.045915;11.51144;336.1;1970-01-01T00:00:00Z;;
46.045901;11.511285;335.9;1970-01-01T00:00:00Z;;
46.045878;11.511103;335.8;1970-01-01T00:00:00Z;;
46.045901;11.510871;335.6;1970-01-01T00:00:00Z;;
46.045941;11.510705;335.5;1970-01-01T00:00:00Z;;
46.045999;11.510514;335.3;1970-01-01T00:00:00Z;;
46.046049;11.510296;335.3;1970-01-01T00:00:00Z;;
46.046072;11.510064;335.5;1970-01-01T00:00:00Z;;
46.046076;11.509845;335.6;1970-01-01T00:00:00Z;;
46.046055;11.509586;335.8;1970-01-01T00:00:00Z;;
46.046052;11.50934;335.0;1970-01-01T00:00:00Z;;
46.046046;11.509184;334.4;1970-01-01T00:00:00Z;;
46.046095;11.508993;333.8;1970-01-01T00:00:00Z;;
46.046209;11.508713;333.2;1970-01-01T00:00:00Z;;
46.046296;11.508446;334.6;1970-01-01T00:00:00Z;;
46.046476;11.508041;336.5;1970-01-01T00:00:00Z;;
46.046842;11.506971;337.4;1970-01-01T00:00:00Z;;
46.047263;11.505788;336.9;1970-01-01T00:00:00Z;;
46.047621;11.504693;339.7;1970-01-01T00:00:00Z;;
46.047786;11.504145;340.7;1970-01-01T00:00:00Z;;
46.048014;11.503185;341.2;1970-01-01T00:00:00Z;;
46.048127;11.502518;344.7;1970-01-01T00:00:00Z;;
46.048248;11.501529;349.6;1970-01-01T00:00:00Z;;
46.048336;11.500809;349.2;1970-01-01T00:00:00Z;;
46.048553;11.499125;347.9;1970-01-01T00:00:00Z;;
46.048779;11.497429;345.5;1970-01-01T00:00:00Z;;
46.049013;11.495759;347.8;1970-01-01T00:00:00Z;;
46.04923;11.494075;352.1;1970-01-01T00:00:00Z;;
46.049262;11.493831;352.5;1970-01-01T00:00:00Z;;
46.049269;11.493509;355.9;1970-01-01T00:00:00Z;;
46.049271;11.49303;362.2;1970-01-01T00:00:00Z;;
46.049253;11.492629;366.2;1970-01-01T00:00:00Z;;
46.04924;11.49237;368.4;1970-01-01T00:00:00Z;;
46.049185;11.492005;372.5;1970-01-01T00:00:00Z;;
46.049057;11.491301;371.6;1970-01-01T00:00:00Z;;
46.048927;11.490662;366.0;1970-01-01T00:00:00Z;;
46.048805;11.490062;361.4;1970-01-01T00:00:00Z;;
46.048693;11.489424;361.6;1970-01-01T00:00:00Z;;
46.048621;11.488994;364.8;1970-01-01T00:00:00Z;;
46.048576;11.488565;367.3;1970-01-01T00:00:00Z;;
46.048527;11.48793;372.1;1970-01-01T00:00:00Z;;
46.048487;11.487282;375.5;1970-01-01T00:00:00Z;;
46.048477;11.486518;376.2;1970-01-01T00:00:00Z;;
46.048479;11.485588;372.4;1970-01-01T00:00:00Z;;
46.048503;11.484904;366.8;1970-01-01T00:00:00Z;;
46.048536;11.484608;364.2;1970-01-01T00:00:00Z;;
46.048529;11.484543;364.1;1970-01-01T00:00:00Z;;
46.048166;11.484255;366.3;1970-01-01T00:00:00Z;;
46.048222;11.484155;365.6;1970-01-01T00:00:00Z;;
46.048289;11.48399;364.8;1970-01-01T00:00:00Z;;
46.048383;11.4838;364.0;1970-01-01T00:00:00Z;;
46.048502;11.483275;365.4;1970-01-01T00:00:00Z;;
46.048591;11.482917;365.7;1970-01-01T00:00:00Z;;
46.048708;11.482496;366.3;1970-01-01T00:00:00Z;;
46.048863;11.481999;367.5;1970-01-01T00:00:00Z;;
46.04896;11.481667;368.5;1970-01-01T00:00:00Z;;
46.049107;11.481131;369.7;1970-01-01T00:00:00Z;;
46.049301;11.48048;371.0;1970-01-01T00:00:00Z;;
46.049475;11.479932;371.7;1970-01-01T00:00:00Z;;
46.049715;11.479258;371.7;1970-01-01T00:00:00Z;;
46.04984;11.478863;371.6;1970-01-01T00:00:00Z;;
46.049945;11.478596;371.0;1970-01-01T00:00:00Z;;
46.050145;11.478101;369.8;1970-01-01T00:00:00Z;;
46.050249;11.477847;369.3;1970-01-01T00:00:00Z;;
46.050325;11.477656;368.9;1970-01-01T00:00:00Z;;
46.050377;11.477374;368.9;1970-01-01T00:00:00Z;;
46.050411;11.477027;369.1;1970-01-01T00:00:00Z;;
46.050437;11.476666;369.5;1970-01-01T00:00:00Z;;
46.050471;11.476331;369.8;1970-01-01T00:00:00Z;;
46.050588;11.475936;370.1;1970-01-01T00:00:00Z;;
46.050803;11.475532;370.7;1970-01-01T00:00:00Z;;
46.051018;11.475205;371.6;1970-01-01T00:00:00Z;;
46.051334;11.474741;373.4;1970-01-01T00:00:00Z;;
46.051436;11.474603;373.9;1970-01-01T00:00:00Z;;
46.051474;11.474515;374.1;1970-01-01T00:00:00Z;;
46.051504;11.474348;374.5;1970-01-01T00:00:00Z;;
46.051489;11.474218;374.7;1970-01-01T00:00:00Z;;
46.05149;11.474192;374.7;1970-01-01T00:00:00Z;;
46.051484;11.47405;375.0;1970-01-01T00:00:00Z;;
46.051479;11.47383;375.4;1970-01-01T00:00:00Z;;
46.051455;11.4737;375.6;1970-01-01T00:00:00Z;;
46.051396;11.473529;375.7;1970-01-01T00:00:00Z;;
46.051345;11.473371;375.8;1970-01-01T00:00:00Z;;
46.051218;11.47303;375.9;1970-01-01T00:00:00Z;;
46.051073;11.472635;377.6;1970-01-01T00:00:00Z;;
46.050989;11.472373;378.8;1970-01-01T00:00:00Z;;
46.050902;11.47224;379.4;1970-01-01T00:00:00Z;;
46.050799;11.471977;380.0;1970-01-01T00:00:00Z;;
46.050739;11.471845;380.0;1970-01-01T00:00:00Z;;
46.050583;11.471592;380.0;1970-01-01T00:00:00Z;;
46.050514;11.471434;380.0;1970-01-01T00:00:00Z;;
46.050514;11.471434;380.0;1970-01-01T00:00:00Z;;
46.050481;11.471303;380.0;1970-01-01T00:00:00Z;;
46.050546;11.471203;380.1;1970-01-01T00:00:00Z;;
46.05064;11.471052;380.2;1970-01-01T00:00:00Z;;
46.0508;11.470684;380.7;1970-01-01T00:00:00Z;;
46.05121;11.469655;383.7;1970-01-01T00:00:00Z;;
46.051246;11.469657;383.7;1970-01-01T00:00:00Z;;
46.051583;11.469866;382.3;1970-01-01T00:00:00Z;;
46.051887;11.469957;381.5;1970-01-01T00:00:00Z;;
46.052174;11.470035;380.6;1970-01-01T00:00:00Z;;
46.052871;11.470247;378.3;1970-01-01T00:00:00Z;;
46.052935;11.470224;378.1;1970-01-01T00:00:00Z;;
46.053026;11.470163;377.7;1970-01-01T00:00:00Z;;
46.053164;11.47004;377.1;1970-01-01T00:00:00Z;;
46.053347;11.469893;376.2;1970-01-01T00:00:00Z;;
46.053385;11.469791;376.1;1970-01-01T00:00:00Z;;
46.053396;11.469688;376.1;1970-01-01T00:00:00Z;;
46.053464;11.469484;375.9;1970-01-01T00:00:00Z;;
46.053504;11.469266;376.1;1970-01-01T00:00:00Z;;
46.053511;11.468969;376.7;1970-01-01T00:00:00Z;;
46.053487;11.467999;377.6;1970-01-01T00:00:00Z;;
46.053548;11.467665;377.9;1970-01-01T00:00:00Z;;
46.053626;11.467372;378.1;1970-01-01T00:00:00Z;;
46.053827;11.466825;379.1;1970-01-01T00:00:00Z;;
46.053884;11.466672;379.7;1970-01-01T00:00:00Z;;
46.053913;11.466583;380.1;1970-01-01T00:00:00Z;;
46.053907;11.466466;380.6;1970-01-01T00:00:00Z;;
46.053885;11.466245;381.7;1970-01-01T00:00:00Z;;
46.053913;11.466169;381.7;1970-01-01T00:00:00Z;;
46.053978;11.466081;381.7;1970-01-01T00:00:00Z;;
46.054043;11.466007;381.6;1970-01-01T00:00:00Z;;
46.054071;11.465931;381.6;1970-01-01T00:00:00Z;;
46.0541;11.465867;381.6;1970-01-01T00:00:00Z;;
46.054201;11.465781;381.5;1970-01-01T00:00:00Z;;
46.054248;11.465667;381.5;1970-01-01T00:00:00Z;;
46.054506;11.464955;382.6;1970-01-01T00:00:00Z;;
46.05466;11.464496;383.8;1970-01-01T00:00:00Z;;
46.054709;11.46433;384.0;1970-01-01T00:00:00Z;;
46.054722;11.464137;384.3;1970-01-01T00:00:00Z;;
46.054712;11.463787;385.1;1970-01-01T00:00:00Z;;
46.054691;11.463502;384.0;1970-01-01T00:00:00Z;;
46.054711;11.463412;383.4;1970-01-01T00:00:00Z;;
46.054721;11.463374;383.1;1970-01-01T00:00:00Z;;
